timestamp,amp_sensor,sens_sensor,sensor
1637046749077,20,10,3644 0 0 0 0 0 0 0 0 0 0 0 0 1432 4508 5120 1928 0 0 0 0 0 0 0 0 1868 3596 3040 712 1964 5748 5916
1637046749077,20,10,3668 0 0 0 0 0 0 0 0 0 0 0 0 1480 4520 5112 1976 0 0 0 0 0 0 0 0 1868 3620 3032 708 1980 5752 5904
1637046749093,20,10,3668 0 0 0 0 0 0 0 0 0 0 0 0 1472 4508 5120 1952 0 0 0 0 0 0 0 0 1888 3600 3064 736 2004 5748 5884
1637046749155,20,10,3664 0 0 0 0 0 0 0 0 0 0 0 0 1476 4524 5116 1904 0 0 0 0 0 0 0 0 1864 3608 3040 736 1996 5732 5896
1637046749202,20,10,3696 0 0 0 0 0 0 0 0 0 0 0 0 1488 4504 5104 1944 0 0 0 0 0 0 0 0 1892 3620 3028 716 2008 5744 5928
1637046749202,20,10,3652 0 0 0 0 0 0 0 0 0 0 0 0 1468 4520 5120 1960 0 0 0 0 0 0 0 0 1884 3596 3020 736 2032 5736 5912
1637046749233,20,10,3692 0 0 0 0 0 0 0 0 0 0 0 0 1520 4524 5132 1968 0 0 0 0 0 0 0 0 1880 3592 3008 712 2004 5780 5900
1637046749265,20,10,3664 0 0 0 0 0 0 0 0 0 0 0 0 1488 4548 5112 1964 0 0 0 0 0 0 0 0 1880 3608 3024 700 1972 5728 5888
1637046749296,20,10,3660 0 0 0 0 0 0 0 0 0 0 0 0 1476 4528 5128 1964 0 0 0 0 0 0 0 0 1828 3596 3040 728 1948 5744 5892
1637046749327,20,10,3632 0 0 0 0 0 0 0 0 0 0 0 0 1480 4512 5116 1984 0 0 0 0 0 0 0 0 1828 3616 2996 736 1936 5728 5900
1637046749358,20,10,3632 0 0 0 0 0 0 0 0 0 0 0 0 1444 4520 5108 1940 0 0 0 0 0 0 0 0 1856 3596 3016 748 1920 5748 5888
1637046749390,20,10,3620 0 0 0 0 0 0 0 0 0 0 0 0 1452 4524 5112 1972 0 0 0 0 0 0 0 0 1828 3584 3032 700 1952 5716 5952
1637046749421,20,10,3612 0 0 0 0 0 0 0 0 0 0 0 0 1464 4516 5104 1948 0 0 0 0 0 0 0 0 1824 3616 3000 736 1960 5760 5884
1637046749452,20,10,3620 0 0 0 0 0 0 0 0 0 0 0 0 1436 4532 5124 1936 0 0 0 0 0 0 0 0 1796 3596 3012 696 1964 5704 5892
1637046749483,20,10,3612 0 0 0 0 0 0 0 0 0 0 0 0 1432 4508 5120 1868 0 0 0 0 0 0 0 0 1748 3632 2996 668 1972 5760 5912
1637046749515,20,10,3620 0 0 0 0 0 0 0 0 0 0 0 0 1412 4548 5116 1880 0 0 0 0 0 0 0 0 1744 3588 2988 688 1972 5736 5912
1637046749546,20,10,3604 0 0 0 0 0 0 0 0 0 0 0 0 1444 4508 5172 1916 0 0 0 0 0 0 0 0 1792 3620 3024 684 1956 5748 5900
1637046749577,20,10,3588 0 0 0 0 0 0 0 0 0 0 0 0 1472 4556 5128 1920 0 0 0 0 0 0 0 0 1856 3568 3044 664 1972 5752 5900
1637046749608,20,10,3580 0 0 0 0 0 0 0 0 0 0 0 0 1468 4512 5152 1916 0 0 0 0 0 0 0 0 1804 3596 3032 636 1996 5756 5904
1637046749655,20,10,3612 0 0 0 0 0 0 0 0 0 0 0 0 1472 4540 5156 1932 0 0 0 0 0 0 0 0 1792 3600 3036 672 1984 5764 5916
1637046749671,20,10,3648 0 0 0 0 0 0 0 0 0 0 0 0 1476 4540 5140 1904 0 0 0 0 0 0 0 0 1752 3596 3060 648 1944 5760 5936
1637046749718,20,10,3644 0 0 0 0 0 0 0 0 0 0 0 0 1480 4536 5148 1880 0 0 0 0 0 0 0 0 1768 3560 3072 652 2000 5776 5920
1637046749749,20,10,3652 0 0 0 0 0 0 0 0 0 0 0 0 1496 4552 5168 1904 0 0 0 0 0 0 0 0 1756 3536 3060 668 1948 5776 5916
1637046749780,20,10,3644 0 0 0 0 0 0 0 0 0 0 0 0 1500 4540 5164 1900 0 0 0 0 0 0 0 0 1776 3556 3068 680 1988 5756 5916
1637046749811,20,10,3668 0 0 0 0 0 0 0 0 0 0 0 0 1520 4528 5184 1916 0 0 0 0 0 0 0 0 1788 3552 3084 668 1980 5792 5896
1637046749827,20,10,3660 0 0 0 0 0 0 0 0 0 0 0 0 1516 4552 5164 1920 0 0 0 0 0 0 0 0 1792 3548 3072 672 1996 5752 5952
1637046749874,20,10,3652 0 0 0 0 0 0 0 0 0 0 0 0 1500 4532 5156 1924 0 0 0 0 0 0 0 0 1800 3580 3104 668 2012 5792 5916
1637046749890,20,10,3660 0 0 0 0 0 0 0 0 0 0 0 0 1504 4492 5148 1984 0 0 0 0 0 0 0 0 1832 3548 3072 648 1960 5760 5912
1637046749968,20,10,3680 0 0 0 0 0 0 0 0 0 0 0 0 1492 4544 5148 1976 0 0 0 0 0 0 0 0 1808 3596 3084 704 1948 5764 5924
1637046749968,20,10,3672 0 0 0 0 0 0 0 0 0 0 0 0 1488 4556 5156 1944 0 0 0 0 0 0 0 0 1832 3564 3084 668 1992 5792 5924
1637046749999,20,10,3676 0 0 0 0 0 0 0 0 0 0 0 0 1492 4544 5160 1924 0 0 0 0 0 0 0 0 1832 3584 3088 688 2016 5780 5940
1637046750030,20,10,3684 0 0 0 0 0 0 0 0 0 0 0 0 1524 4548 5168 1968 0 0 0 0 0 0 0 0 1816 3568 3068 672 2004 5756 5916
1637046750061,20,10,3704 0 0 0 0 0 0 0 0 0 0 0 0 1496 4532 5180 1956 0 0 0 0 0 0 0 0 1824 3544 3096 684 2016 5784 5932
1637046750093,20,10,3676 0 0 0 0 0 0 0 0 0 0 0 0 1504 4548 5164 1924 0 0 0 0 0 0 0 0 1820 3564 3076 676 2004 5756 5916
1637046750124,20,10,3680 0 0 0 0 0 0 0 0 0 0 0 0 1492 4520 5180 1960 0 0 0 0 0 0 0 0 1856 3560 3092 680 2016 5776 5940
1637046750155,20,10,3688 0 0 0 0 0 0 0 0 0 0 0 0 1532 4540 5168 1956 0 0 0 0 0 0 0 0 1860 3556 3068 708 2008 5804 5924
1637046750171,20,10,3704 0 0 0 0 0 0 0 0 0 0 0 0 1536 4540 5180 1944 0 0 0 0 0 0 0 0 1848 3548 3080 676 2012 5752 5936
1637046750202,20,10,3668 0 0 0 0 0 0 0 0 0 0 0 0 1528 4548 5172 1896 0 0 0 0 0 0 0 0 1820 3536 3068 688 2036 5756 5920
1637046750265,20,10,3704 0 0 0 0 0 0 0 0 0 0 0 0 1516 4528 5192 1900 0 0 0 0 0 0 0 0 1812 3536 3092 672 2024 5788 5920
1637046750311,20,10,3660 0 0 0 0 0 0 0 0 0 0 0 0 1532 4544 5184 1904 0 0 0 0 0 0 0 0 1824 3536 3068 684 2044 5784 5968
1637046750311,20,10,3688 0 0 0 0 0 0 0 0 0 0 0 0 1560 4560 5184 1884 0 0 0 0 0 0 0 0 1844 3520 3108 696 2032 5792 5940
1637046750343,20,10,3696 0 0 0 0 0 0 0 0 0 0 0 0 1536 4536 5176 1888 0 0 0 0 0 0 0 0 1824 3532 3092 732 2036 5756 5952
1637046750374,20,10,3708 0 0 0 0 0 0 0 0 0 0 0 0 1536 4528 5180 1916 0 0 0 0 0 0 0 0 1816 3516 3080 704 2024 5792 5940
1637046750405,20,10,3712 0 0 0 0 0 0 0 0 0 0 0 0 1540 4528 5180 1964 0 0 0 0 0 0 0 0 1840 3500 3096 700 2028 5792 5924
1637046750436,20,10,3652 0 0 0 0 0 0 0 0 0 0 0 0 1528 4540 5212 1916 0 0 0 0 0 0 0 0 1840 3516 3100 696 2040 5776 5936
1637046750468,20,10,3692 0 0 0 0 0 0 0 0 0 0 0 0 1532 4512 5184 1900 0 0 0 0 0 0 0 0 1792 3500 3068 688 2012 5788 5948
1637046750499,20,10,3728 0 0 0 0 0 0 0 0 0 0 0 0 1516 4548 5168 1912 0 0 0 0 0 0 0 0 1796 3464 3072 716 2024 5792 5936
1637046750546,20,10,3700 0 0 0 0 0 0 0 0 0 0 0 0 1548 4520 5172 1916 0 0 0 0 0 0 0 0 1832 3520 3096 704 2048 5748 5936
1637046750561,20,10,3696 0 0 0 0 0 0 0 0 0 0 0 0 1516 4544 5148 1944 0 0 0 0 0 0 0 0 1836 3500 3084 736 2072 5764 5948
1637046750608,20,10,3720 0 0 0 0 0 0 0 0 0 0 0 0 1532 4544 5172 1940 0 0 0 0 0 0 0 0 1832 3524 3120 712 2056 5780 5960
1637046750624,20,10,3692 0 0 0 0 0 0 0 0 0 0 0 0 1548 4536 5176 1928 0 0 0 0 0 0 0 0 1860 3532 3104 716 2028 5784 5932
1637046750686,20,10,3712 0 0 0 0 0 0 0 0 0 0 0 0 1532 4544 5144 1952 0 0 0 0 0 0 0 0 1848 3532 3092 700 2040 5780 5944
1637046750686,20,10,3676 0 0 0 0 0 0 0 0 0 0 0 0 1552 4520 5148 1916 0 0 0 0 0 0 0 0 1824 3524 3124 712 2040 5792 5908
1637046750718,20,10,3712 0 0 0 0 0 0 0 0 0 0 0 0 1544 4556 5184 1924 0 0 0 0 0 0 0 0 1828 3560 3092 708 2028 5784 5952
1637046750749,20,10,3704 0 0 0 0 0 0 0 0 0 0 0 0 1548 4552 5172 1960 0 0 0 0 0 0 0 0 1808 3516 3096 708 2028 5784 5940
1637046750780,20,10,3708 0 0 0 0 0 0 0 0 0 0 0 0 1544 4576 5184 1968 0 0 0 0 0 0 0 0 1820 3512 3092 716 2060 5792 5964
1637046750827,20,10,3716 0 0 0 0 0 0 0 0 0 0 0 0 1560 4552 5156 1948 0 0 0 0 0 0 0 0 1840 3528 3084 732 2048 5788 5952
1637046750858,20,10,3696 0 0 0 0 0 0 0 0 0 0 0 0 1552 4540 5168 1944 0 0 0 0 0 0 0 0 1812 3524 3100 720 2040 5788 5920
1637046750890,20,10,3708 0 0 0 0 0 0 0 0 0 0 0 0 1548 4568 5192 1948 0 0 0 0 0 0 0 0 1832 3504 3100 696 2028 5796 5952
1637046750921,20,10,3704 0 0 0 0 0 0 0 0 0 0 0 0 1532 4544 5172 1948 0 0 0 0 0 0 0 0 1848 3528 3092 716 2020 5764 5964
1637046750936,20,10,3704 0 0 0 0 0 0 0 0 0 0 0 0 1536 4540 5184 1936 0 0 0 0 0 0 0 0 1808 3536 3092 700 2024 5780 5948
1637046750968,20,10,3712 0 0 0 0 0 0 0 0 0 0 0 0 1548 4544 5184 1948 0 0 0 0 0 0 0 0 1832 3536 3112 704 2016 5792 5964
1637046750999,20,10,3708 0 0 0 0 0 0 0 0 0 0 0 0 1540 4512 5168 1932 0 0 0 0 0 0 0 0 1840 3520 3100 700 2012 5772 5940
1637046751046,20,10,3724 0 0 0 0 0 0 0 0 0 0 0 0 1540 4524 5196 1952 0 0 0 0 0 0 0 0 1816 3524 3128 696 2012 5792 5944
1637046751077,20,10,3736 0 0 0 0 0 0 0 0 0 0 0 0 1532 4512 5148 1940 0 0 0 0 0 0 0 0 1840 3528 3092 700 2020 5800 5948
1637046751108,20,10,3712 0 0 0 0 0 0 0 0 0 0 0 0 1536 4532 5188 1964 0 0 0 0 0 0 0 0 1820 3552 3136 716 2004 5808 5952
1637046751140,20,10,3708 0 0 0 0 0 0 0 0 0 0 0 0 1540 4532 5196 1952 0 0 0 0 0 0 0 0 1804 3520 3084 700 1984 5772 5956
1637046751171,20,10,3752 0 0 0 0 0 0 0 0 0 0 0 0 1544 4532 5184 1972 0 0 0 0 0 0 0 0 1832 3536 3108 712 1988 5812 5960
1637046751218,20,10,3716 0 0 0 0 0 0 0 0 0 0 0 0 1536 4540 5148 1944 0 0 0 0 0 0 0 0 1812 3484 3116 724 2016 5800 5964
1637046751233,20,10,3740 0 0 0 0 0 0 0 0 0 0 0 0 1548 4544 5172 1956 0 0 0 0 0 0 0 0 1856 3496 3096 712 2048 5784 5952
1637046751280,20,10,3728 0 0 0 0 0 0 0 0 0 0 0 0 1552 4552 5188 1980 0 0 0 0 0 0 0 0 1828 3508 3112 704 2012 5808 5948
1637046751296,20,10,3716 0 0 0 0 0 0 0 0 0 0 0 0 1572 4532 5164 1956 0 0 0 0 0 0 0 0 1844 3500 3108 692 2028 5752 5916
1637046751343,20,10,3696 0 0 0 0 0 0 0 0 0 0 0 0 1548 4544 5176 1968 0 0 0 0 0 0 0 0 1804 3520 3092 696 2024 5776 5948
1637046751374,20,10,3724 0 0 0 0 0 0 0 0 0 0 0 0 1544 4556 5192 1952 0 0 0 0 0 0 0 0 1808 3508 3100 700 2016 5792 5956
1637046751390,20,10,3728 0 0 0 0 0 0 0 0 0 0 0 0 1540 4532 5176 1944 0 0 0 0 0 0 0 0 1772 3500 3076 688 1988 5800 5952
1637046751421,20,10,3700 0 0 0 0 0 0 0 0 0 0 0 0 1568 4524 5176 1952 0 0 0 0 0 0 0 0 1776 3504 3088 700 2024 5792 5932
1637046751452,20,10,3724 0 0 0 0 0 0 0 0 0 0 0 0 1560 4528 5168 1940 0 0 0 0 0 0 0 0 1824 3508 3096 708 2016 5800 5924
1637046751483,20,10,3720 0 0 0 0 0 0 0 0 0 0 0 0 1576 4544 5172 1920 0 0 0 0 0 0 0 0 1816 3492 3104 696 2016 5772 5956
1637046751515,20,10,3708 0 0 0 0 0 0 0 0 0 0 0 0 1552 4540 5180 1920 0 0 0 0 0 0 0 0 1848 3508 3068 704 2020 5764 5948
1637046751546,20,10,3728 0 0 0 0 0 0 0 0 0 0 0 0 1572 4528 5192 1916 0 0 0 0 0 0 0 0 1844 3508 3068 688 2024 5792 5936
1637046751593,20,10,3716 0 0 0 0 0 0 0 0 0 0 0 0 1544 4544 5192 1932 0 0 0 0 0 0 0 0 1820 3492 3096 704 2028 5788 5940
1637046751608,20,10,3724 0 0 0 0 0 0 0 0 0 0 0 0 1548 4548 5180 1908 0 0 0 0 0 0 0 0 1820 3524 3112 704 2032 5768 5988
1637046751655,20,10,3672 0 0 0 0 0 0 0 0 0 0 0 0 1588 4540 5172 1928 0 0 0 0 0 0 0 0 1840 3520 3124 652 2040 5740 5932
1637046751671,20,10,3736 0 0 0 0 0 0 0 0 0 0 0 0 1544 4508 5188 1916 0 0 0 0 0 0 0 0 1840 3512 3088 720 2024 5800 5940
1637046751702,20,10,3736 0 0 0 0 0 0 0 0 0 0 0 0 1564 4560 5156 1912 0 0 0 0 0 0 0 0 1840 3524 3104 696 2032 5764 5964
1637046751749,20,10,3736 0 0 0 0 0 0 0 0 0 0 0 0 1568 4540 5208 1936 0 0 0 0 0 0 0 0 1844 3516 3108 700 2024 5780 5968
1637046751765,20,10,3708 0 0 0 0 0 0 0 0 0 0 0 0 1564 4528 5192 1920 0 0 0 0 0 0 0 0 1848 3488 3084 704 2012 5784 5964
1637046751811,20,10,3732 0 0 0 0 0 0 0 0 0 0 0 0 1552 4528 5172 1932 0 0 0 0 0 0 0 0 1852 3500 3104 700 1996 5760 5948
1637046751827,20,10,3728 0 0 0 0 0 0 0 0 0 0 0 0 1564 4532 5164 1936 0 0 0 0 0 0 0 0 1868 3504 3084 704 1996 5788 5948
1637046751858,20,10,3712 0 0 0 0 0 0 0 0 0 0 0 0 1552 4524 5188 1920 0 0 0 0 0 0 0 0 1860 3520 3076 716 2032 5768 5956
1637046751890,20,10,3744 0 0 0 0 0 0 0 0 0 0 0 0 1568 4536 5176 1932 0 0 0 0 0 0 0 0 1840 3508 3064 720 2020 5784 5952
1637046751952,20,10,3744 0 0 0 0 0 0 0 0 0 0 0 0 1552 4540 5176 1944 0 0 0 0 0 0 0 0 1860 3536 3076 696 1992 5776 5912
1637046751983,20,10,3756 0 0 0 0 0 0 0 0 0 0 0 0 1560 4528 5216 1936 0 0 0 0 0 0 0 0 1880 3540 3092 708 2024 5772 5952
1637046751999,20,10,3724 0 0 0 0 0 0 0 0 0 0 0 0 1544 4544 5180 1936 0 0 0 0 0 0 0 0 1876 3532 3068 680 2016 5792 5952
1637046752030,20,10,3756 0 0 0 0 0 0 0 0 0 0 0 0 1556 4528 5184 1956 0 0 0 0 0 0 0 0 1892 3536 3084 712 2032 5776 5952
1637046752077,20,10,3752 0 0 0 0 0 0 0 0 0 0 0 0 1588 4592 5172 1960 0 0 0 0 0 0 0 0 1872 3520 3084 728 2048 5792 5944
1637046752077,20,10,3728 0 0 0 0 0 0 0 0 0 0 0 0 1552 4536 5184 1948 0 0 0 0 0 0 0 0 1872 3604 3104 700 2016 5740 5944
1637046752109,20,10,3748 0 0 0 0 0 0 0 0 0 0 0 0 1532 4532 5184 1952 0 0 0 0 0 0 0 0 1880 3520 3064 752 2036 5772 5940
1637046752140,20,10,3736 0 0 0 0 0 0 0 0 0 0 0 0 1556 4544 5160 1928 0 0 0 0 0 0 0 0 1888 3536 3084 696 2036 5784 5964
1637046752187,20,10,3724 0 0 0 0 0 0 0 0 0 0 0 0 1556 4544 5184 1968 0 0 0 0 0 0 0 0 1888 3548 3104 696 2016 5792 5936
1637046752218,20,10,3708 0 0 0 0 0 0 0 0 0 0 0 0 1532 4544 5164 1932 0 0 0 0 0 0 0 0 1884 3512 3112 704 2036 5780 5924
1637046752280,20,10,3724 0 0 0 0 0 0 0 0 0 0 0 0 1576 4536 5180 1956 0 0 0 0 0 0 0 0 1880 3536 3100 704 2032 5768 5952
1637046752280,20,10,3708 0 0 0 0 0 0 0 0 0 0 0 0 1568 4508 5184 1952 0 0 0 0 0 0 0 0 1876 3552 3104 704 2052 5772 5964
1637046752312,20,10,3712 0 0 0 0 0 0 0 0 0 0 0 0 1584 4548 5132 1984 0 0 0 0 0 0 0 0 1888 3544 3100 696 2056 5772 5952
1637046752374,20,10,3732 0 0 0 0 0 0 0 0 0 0 0 0 1600 4520 5176 1948 0 0 0 0 0 0 0 0 1888 3568 3068 708 2040 5792 5964
1637046752374,20,10,3708 0 0 0 0 0 0 0 0 0 0 0 0 1564 4544 5192 1952 0 0 0 0 0 0 0 0 1912 3568 3120 700 2028 5788 5960
1637046752405,20,10,3740 0 0 0 0 0 0 0 0 0 0 0 0 1540 4504 5220 1948 0 0 0 0 0 0 0 0 1888 3556 3104 708 2048 5792 5964
1637046752436,20,10,3724 0 0 0 0 0 0 0 0 0 0 0 0 1528 4540 5160 1968 0 0 0 0 0 0 0 0 1892 3524 3112 724 2032 5784 5960
1637046752484,20,10,3744 0 0 0 0 0 0 0 0 0 0 0 0 1536 4524 5196 1956 0 0 0 0 0 0 0 0 1920 3520 3092 688 2060 5776 5948
1637046752515,20,10,3724 0 0 0 0 0 0 0 0 0 0 0 0 1532 4508 5148 1916 0 0 0 0 0 0 0 0 1876 3548 3100 684 2044 5784 5948
1637046752530,20,10,3740 0 0 0 0 0 0 0 0 0 0 0 0 1528 4544 5184 1992 0 0 0 0 0 0 0 0 1872 3584 3112 704 2044 5776 5940
1637046752609,20,10,3728 0 0 0 0 0 0 0 0 0 0 0 0 1544 4520 5172 1952 0 0 0 0 0 0 0 0 1900 3536 3104 684 2096 5760 5956
1637046752624,20,10,3744 0 0 0 0 0 0 0 0 0 0 0 0 1528 4524 5180 1940 0 0 0 0 0 0 0 0 1876 3552 3080 692 2032 5768 5936
1637046752640,20,10,3736 0 0 0 0 0 0 0 0 0 0 0 0 1584 4540 5196 1920 0 0 0 0 0 0 0 0 1880 3552 3096 696 2040 5768 5968
1637046752671,20,10,3724 0 0 0 0 0 0 0 0 0 0 0 0 1556 4532 5148 1932 0 0 0 0 0 0 0 0 1888 3532 3084 688 2032 5772 5968
1637046752702,20,10,3708 0 0 0 0 0 0 0 0 0 0 0 0 1576 4524 5180 1948 0 0 0 0 0 0 0 0 1892 3532 3092 652 2036 5780 5948
1637046752718,20,10,3708 0 0 0 0 0 0 0 0 0 0 0 0 1576 4524 5148 1944 0 0 0 0 0 0 0 0 1892 3560 3136 688 2028 5760 5968
1637046752765,20,10,3712 0 0 0 0 0 0 0 0 0 0 0 0 1560 4516 5176 1968 0 0 0 0 0 0 0 0 1900 3552 3104 676 2012 5772 5964
1637046752812,20,10,3724 0 0 0 0 0 0 0 0 0 0 0 0 1552 4508 5180 1952 0 0 0 0 0 0 0 0 1892 3536 3088 680 2016 5764 5956
1637046752812,20,10,3716 0 0 0 0 0 0 0 0 0 0 0 0 1584 4544 5184 1956 0 0 0 0 0 0 0 0 1880 3544 3080 688 2024 5780 5968
1637046752859,20,10,3744 0 0 0 0 0 0 0 0 0 0 0 0 1532 4508 5136 1956 0 0 0 0 0 0 0 0 1880 3552 3100 648 2056 5764 5972
1637046752874,20,10,3724 0 0 0 0 0 0 0 0 0 0 0 0 1548 4536 5160 1952 0 0 0 0 0 0 0 0 1900 3544 3092 652 2024 5748 5940
1637046752921,20,10,3708 0 0 0 0 0 0 0 0 0 0 0 0 1572 4552 5176 1952 0 0 0 0 0 0 0 0 1884 3516 3080 656 2012 5776 5968
1637046752937,20,10,3728 0 0 0 0 0 0 0 0 0 0 0 0 1564 4536 5184 1952 0 0 0 0 0 0 0 0 1884 3560 3100 668 2052 5792 5972
1637046752968,20,10,3708 0 0 0 0 0 0 0 0 0 0 0 0 1544 4516 5184 1936 0 0 0 0 0 0 0 0 1888 3548 3100 680 2068 5776 5944
1637046753077,20,10,3720 0 0 0 0 0 0 0 0 0 0 0 0 1568 4544 5216 1920 0 0 0 0 0 0 0 0 1880 3500 3092 656 2036 5764 5948
1637046753077,20,10,3724 0 0 0 0 0 0 0 0 0 0 0 0 1560 4528 5180 1960 0 0 0 0 0 0 0 0 1888 3532 3080 640 2064 5748 5944
1637046753077,20,10,3716 0 0 0 0 0 0 0 0 0 0 0 0 1584 4496 5200 1928 0 0 0 0 0 0 0 0 1896 3516 3104 672 2040 5752 5944
1637046753124,20,10,3692 0 0 0 0 0 0 0 0 0 0 0 0 1580 4532 5196 1936 0 0 0 0 0 0 0 0 1868 3548 3100 672 2064 5796 5956
1637046753140,20,10,3728 0 0 0 0 0 0 0 0 0 0 0 0 1532 4516 5216 1952 0 0 0 0 0 0 0 0 1916 3540 3084 660 2052 5768 5952
1637046753187,20,10,3704 0 0 0 0 0 0 0 0 0 0 0 0 1560 4532 5188 1932 0 0 0 0 0 0 0 0 1868 3532 3060 668 2044 5756 5936
1637046753187,20,10,3692 0 0 0 0 0 0 0 0 0 0 0 0 1540 4528 5152 1936 0 0 0 0 0 0 0 0 1884 3532 3084 664 2064 5740 5952
1637046753218,20,10,3676 0 0 0 0 0 0 0 0 0 0 0 0 1536 4516 5224 1916 0 0 0 0 0 0 0 0 1892 3544 3080 652 2064 5772 5948
1637046753249,20,10,3700 0 0 0 0 0 0 0 0 0 0 0 0 1576 4532 5164 1932 0 0 0 0 0 0 0 0 1920 3556 3096 672 2044 5760 5944
1637046753343,20,10,3672 0 0 0 0 0 0 0 0 0 0 0 0 1544 4528 5180 1916 0 0 0 0 0 0 0 0 1900 3536 3104 664 2044 5756 5948
1637046753343,20,10,3676 0 0 0 0 0 0 0 0 0 0 0 0 1556 4544 5144 1948 0 0 0 0 0 0 0 0 1904 3548 3080 676 2048 5760 5952
1637046753359,20,10,3708 0 0 0 0 0 0 0 0 0 0 0 0 1564 4536 5192 1944 0 0 0 0 0 0 0 0 1904 3528 3076 664 2068 5808 5944
1637046753390,20,10,3680 0 0 0 0 0 0 0 0 0 0 0 0 1564 4516 5180 1984 0 0 0 0 0 0 0 0 1904 3516 3088 664 2060 5792 5944
1637046753421,20,10,3660 0 0 0 0 0 0 0 0 0 0 0 0 1568 4540 5168 1956 0 0 0 0 0 0 0 0 1856 3552 3064 652 2056 5724 5976
1637046753468,20,10,3676 0 0 0 0 0 0 0 0 0 0 0 0 1564 4540 5176 1948 0 0 0 0 0 0 0 0 1908 3540 3088 644 2064 5744 5964
1637046753515,20,10,3696 0 0 0 0 0 0 0 0 0 0 0 0 1560 4524 5168 1956 0 0 0 0 0 0 0 0 1888 3552 3100 660 2060 5772 5952
1637046753515,20,10,3676 0 0 0 0 0 0 0 0 0 0 0 0 1560 4528 5200 1948 0 0 0 0 0 0 0 0 1900 3532 3096 628 2016 5764 5964
1637046753546,20,10,3684 0 0 0 0 0 0 0 0 0 0 0 0 1552 4528 5164 1932 0 0 0 0 0 0 0 0 1900 3548 3104 648 2036 5776 5948
1637046753593,20,10,3712 0 0 0 0 0 0 0 0 0 0 0 0 1536 4528 5144 1940 0 0 0 0 0 0 0 0 1920 3552 3096 672 2020 5764 5956
1637046753609,20,10,3704 0 0 0 0 0 0 0 0 0 0 0 0 1544 4516 5188 1952 0 0 0 0 0 0 0 0 1888 3548 3116 648 2052 5768 5932
1637046753640,20,10,3704 0 0 0 0 0 0 0 0 0 0 0 0 1536 4508 5136 1992 0 0 0 0 0 0 0 0 1880 3540 3084 656 2016 5756 5932
1637046753671,20,10,3712 0 0 0 0 0 0 0 0 0 0 0 0 1548 4548 5152 1944 0 0 0 0 0 0 0 0 1880 3544 3084 652 2052 5764 5952
1637046753702,20,10,3688 0 0 0 0 0 0 0 0 0 0 0 0 1548 4532 5176 1964 0 0 0 0 0 0 0 0 1904 3544 3112 648 2024 5792 5948
1637046753734,20,10,3704 0 0 0 0 0 0 0 0 0 0 0 0 1552 4484 5176 1996 0 0 0 0 0 0 0 0 1896 3544 3096 636 2016 5760 5964
1637046753796,20,10,3672 0 0 0 0 0 0 0 0 0 0 0 0 1556 4500 5184 1912 0 0 0 0 0 0 0 0 1892 3524 3084 624 1996 5792 5936
1637046753796,20,10,3684 0 0 0 0 0 0 0 0 0 0 0 0 1540 4516 5184 1948 0 0 0 0 0 0 0 0 1900 3536 3088 644 2028 5748 5920
1637046753827,20,10,3672 0 0 0 0 0 0 0 0 0 0 0 0 1568 4520 5140 1976 0 0 0 0 0 0 0 0 1896 3548 3084 660 2024 5756 5952
1637046753890,20,10,3688 0 0 0 0 0 0 0 0 0 0 0 0 1572 4540 5184 1964 0 0 0 0 0 0 0 0 1876 3548 3072 652 2004 5788 5944
1637046753921,20,10,3712 0 0 0 0 0 0 0 0 0 0 0 0 1568 4508 5184 1964 0 0 0 0 0 0 0 0 1884 3552 3104 656 2024 5740 5944
1637046753936,20,10,3688 0 0 0 0 0 0 0 0 0 0 0 0 1572 4536 5180 1976 0 0 0 0 0 0 0 0 1892 3552 3092 632 2000 5768 5920
1637046753952,20,10,3668 0 0 0 0 0 0 0 0 0 0 0 0 1548 4520 5192 1940 0 0 0 0 0 0 0 0 1892 3516 3100 656 2036 5744 5936
1637046753984,20,10,3660 0 0 0 0 0 0 0 0 0 0 0 0 1552 4532 5200 1952 0 0 0 0 0 0 0 0 1900 3532 3100 660 2004 5752 5944
1637046754015,20,10,3628 0 0 0 0 0 0 0 0 0 0 0 0 1556 4536 5180 1920 0 0 0 0 0 0 0 0 1884 3528 3092 640 2036 5772 5948
1637046754046,20,10,3660 0 0 0 0 0 0 0 0 0 0 0 0 1576 4544 5208 1920 0 0 0 0 0 0 0 0 1888 3500 3128 616 2024 5792 5940
1637046754108,20,10,3644 0 0 0 0 0 0 0 0 0 0 0 0 1568 4544 5168 1936 0 0 0 0 0 0 0 0 1864 3500 3072 652 2056 5724 5940
1637046754108,20,10,3648 0 0 0 0 0 0 0 0 0 0 0 0 1572 4544 5192 1952 0 0 0 0 0 0 0 0 1836 3504 3100 620 2044 5776 5948
1637046754155,20,10,3660 0 0 0 0 0 0 0 0 0 0 0 0 1568 4540 5184 1944 0 0 0 0 0 0 0 0 1848 3520 3076 624 2044 5756 5956
1637046754202,20,10,3648 0 0 0 0 0 0 0 0 0 0 0 0 1580 4540 5192 1968 0 0 0 0 0 0 0 0 1888 3528 3084 644 2044 5760 5932
1637046754218,20,10,3648 0 0 0 0 0 0 0 0 0 0 0 0 1596 4508 5160 1964 0 0 0 0 0 0 0 0 1876 3532 3072 636 2064 5756 5952
1637046754280,20,10,3664 0 0 0 0 0 0 0 0 0 0 0 0 1600 4540 5184 1984 0 0 0 0 0 0 0 0 1848 3520 3104 636 2040 5764 5932
1637046754280,20,10,3660 0 0 0 0 0 0 0 0 0 0 0 0 1568 4504 5168 1940 0 0 0 0 0 0 0 0 1864 3520 3108 644 2032 5764 5960
1637046754311,20,10,3652 0 0 0 0 0 0 0 0 0 0 0 0 1556 4508 5176 1948 0 0 0 0 0 0 0 0 1852 3516 3084 632 2008 5740 5948
1637046754327,20,10,3652 0 0 0 0 0 0 0 0 0 0 0 0 1572 4536 5200 1944 0 0 0 0 0 0 0 0 1832 3544 3084 668 2020 5760 5940
1637046754359,20,10,3612 0 0 0 0 0 0 0 0 0 0 0 0 1564 4524 5184 1976 0 0 0 0 0 0 0 0 1864 3512 3104 644 2024 5760 5972
1637046754405,20,10,3664 0 0 0 0 0 0 0 0 0 0 0 0 1572 4520 5200 1992 0 0 0 0 0 0 0 0 1876 3516 3076 632 2020 5792 5948
1637046754437,20,10,3628 0 0 0 0 0 0 0 0 0 0 0 0 1544 4548 5196 1964 0 0 0 0 0 0 0 0 1856 3544 3068 664 2028 5776 5964
1637046754468,20,10,3664 0 0 0 0 0 0 0 0 0 0 0 0 1560 4540 5168 1972 0 0 0 0 0 0 0 0 1872 3528 3104 672 2040 5780 5948
1637046754499,20,10,3648 0 0 0 0 0 0 0 0 0 0 0 0 1560 4528 5180 1972 0 0 0 0 0 0 0 0 1872 3516 3100 688 2040 5792 5948
1637046754530,20,10,3676 0 0 0 0 0 0 0 0 0 0 0 0 1544 4544 5176 1932 0 0 0 0 0 0 0 0 1888 3552 3076 680 2044 5776 5956
1637046754577,20,10,3680 0 0 0 0 0 0 0 0 0 0 0 0 1532 4544 5172 1972 0 0 0 0 0 0 0 0 1860 3556 3096 660 1960 5752 5960
1637046754593,20,10,3680 0 0 0 0 0 0 0 0 0 0 0 0 1532 4516 5156 1984 0 0 0 0 0 0 0 0 1852 3532 3088 660 2012 5776 5972
1637046754640,20,10,3668 0 0 0 0 0 0 0 0 0 0 0 0 1544 4540 5168 1992 0 0 0 0 0 0 0 0 1860 3536 3084 676 2004 5752 5948
1637046754655,20,10,3704 0 0 0 0 0 0 0 0 0 0 0 0 1568 4528 5180 1956 0 0 0 0 0 0 0 0 1872 3528 3104 660 1984 5748 5928
1637046754702,20,10,3652 0 0 0 0 0 0 0 0 0 0 0 0 1564 4528 5200 1980 0 0 0 0 0 0 0 0 1880 3540 3084 648 2000 5772 5956
1637046754734,20,10,3680 0 0 0 0 0 0 0 0 0 0 0 0 1556 4508 5244 1988 0 0 0 0 0 0 0 0 1844 3532 3088 660 2008 5752 5944
1637046754749,20,10,3664 0 0 0 0 0 0 0 0 0 0 0 0 1564 4528 5180 1968 0 0 0 0 0 0 0 0 1856 3544 3084 652 2016 5768 5952
1637046754780,20,10,3680 0 0 0 0 0 0 0 0 0 0 0 0 1540 4532 5156 1972 0 0 0 0 0 0 0 0 1852 3552 3084 660 1980 5768 5944
1637046754827,20,10,3668 0 0 0 0 0 0 0 0 0 0 0 0 1548 4532 5156 1968 0 0 0 0 0 0 0 0 1868 3540 3076 652 1984 5776 5948
1637046754858,20,10,3664 0 0 0 0 0 0 0 0 0 0 0 0 1560 4548 5176 1976 0 0 0 0 0 0 0 0 1880 3524 3096 660 1992 5744 5964
1637046754874,20,10,3668 0 0 0 0 0 0 0 0 0 0 0 0 1560 4544 5168 1980 0 0 0 0 0 0 0 0 1864 3524 3100 652 1988 5752 5948
1637046754905,20,10,3676 0 0 0 0 0 0 0 0 0 0 0 0 1564 4508 5172 1968 0 0 0 0 0 0 0 0 1876 3520 3100 652 2008 5764 5936
1637046754969,20,10,3636 0 0 0 0 0 0 0 0 0 0 0 0 1512 4508 5152 1964 0 0 0 0 0 0 0 0 1884 3520 3088 648 2012 5784 5952
1637046754984,20,10,3656 0 0 0 0 0 0 0 0 0 0 0 0 1548 4536 5200 1964 0 0 0 0 0 0 0 0 1852 3556 3104 672 2000 5760 5960
1637046755016,20,10,3660 0 0 0 0 0 0 0 0 0 0 0 0 1576 4524 5172 1984 0 0 0 0 0 0 0 0 1868 3552 3100 648 1984 5768 5948
1637046755031,20,10,3648 0 0 0 0 0 0 0 0 0 0 0 0 1552 4488 5184 1948 0 0 0 0 0 0 0 0 1876 3500 3104 640 1976 5760 5940
1637046755078,20,10,3648 0 0 0 0 0 0 0 0 0 0 0 0 1556 4504 5180 1960 0 0 0 0 0 0 0 0 1864 3528 3088 648 1952 5744 5952
1637046755110,20,10,3632 0 0 0 0 0 0 0 0 0 0 0 0 1540 4532 5176 1964 0 0 0 0 0 0 0 0 1860 3516 3068 656 1932 5772 5932
1637046755125,20,10,3680 0 0 0 0 0 0 0 0 0 0 0 0 1560 4500 5192 1948 0 0 0 0 0 0 0 0 1848 3504 3112 668 1952 5744 5952
1637046755156,20,10,3644 0 0 0 0 0 0 0 0 0 0 0 0 1568 4516 5156 1968 0 0 0 0 0 0 0 0 1856 3496 3068 632 1936 5800 5948
1637046755235,20,10,3692 0 0 0 0 0 0 0 0 0 0 0 0 1556 4512 5172 1968 0 0 0 0 0 0 0 0 1848 3532 3076 636 1972 5760 5940
1637046755235,20,10,3680 0 0 0 0 0 0 0 0 0 0 0 0 1568 4520 5172 2016 0 0 0 0 0 0 0 0 1856 3532 3084 664 1964 5764 5960
1637046755267,20,10,3660 0 0 0 0 0 0 0 0 0 0 0 0 1544 4512 5188 1984 0 0 0 0 0 0 0 0 1848 3532 3088 636 1932 5736 5940
1637046755298,20,10,3680 0 0 0 0 0 0 0 0 0 0 0 0 1548 4520 5184 1936 0 0 0 0 0 0 0 0 1864 3544 3104 648 1972 5780 5952
1637046755361,20,10,3676 0 0 0 0 0 0 0 0 0 0 0 0 1564 4528 5184 1948 0 0 0 0 0 0 0 0 1876 3544 3084 664 1980 5772 5944
1637046755361,20,10,3644 0 0 0 0 0 0 0 0 0 0 0 0 1572 4504 5168 1972 0 0 0 0 0 0 0 0 1852 3524 3084 680 1968 5736 5964
1637046755377,20,10,3672 0 0 0 0 0 0 0 0 0 0 0 0 1548 4484 5176 1964 0 0 0 0 0 0 0 0 1848 3516 3092 656 1988 5748 5936
1637046755408,20,10,3644 0 0 0 0 0 0 0 0 0 0 0 0 1548 4528 5168 1920 0 0 0 0 0 0 0 0 1860 3516 3096 648 1976 5740 5916
1637046755455,20,10,3656 0 0 0 0 0 0 0 0 0 0 0 0 1568 4504 5172 1984 0 0 0 0 0 0 0 0 1840 3512 3104 644 1972 5756 5932
1637046755470,20,10,3664 0 0 0 0 0 0 0 0 0 0 0 0 1564 4516 5164 1968 0 0 0 0 0 0 0 0 1868 3480 3064 668 1984 5744 5948
1637046755502,20,10,3644 0 0 0 0 0 0 0 0 0 0 0 0 1556 4528 5168 1968 0 0 0 0 0 0 0 0 1864 3544 3084 648 1948 5760 5932
1637046755564,20,10,3668 0 0 0 0 0 0 0 0 0 0 0 0 1552 4528 5180 1944 0 0 0 0 0 0 0 0 1840 3520 3088 656 1952 5760 5936
1637046755580,20,10,3684 0 0 0 0 0 0 0 0 0 0 0 0 1588 4496 5180 1896 0 0 0 0 0 0 0 0 1820 3476 3096 636 1964 5744 5952
1637046755611,20,10,3644 0 0 0 0 0 0 0 0 0 0 0 0 1572 4508 5192 1952 0 0 0 0 0 0 0 0 1836 3452 3104 644 1984 5748 5948
1637046755642,20,10,3664 0 0 0 0 0 0 0 0 0 0 0 0 1556 4496 5180 1948 0 0 0 0 0 0 0 0 1820 3484 3104 636 1984 5740 5952
1637046755674,20,10,3676 0 0 0 0 0 0 0 0 0 0 0 0 1536 4496 5164 1936 0 0 0 0 0 0 0 0 1848 3488 3096 624 1980 5760 5944
1637046755705,20,10,3672 0 0 0 0 0 0 0 0 0 0 0 0 1572 4516 5168 1968 0 0 0 0 0 0 0 0 1848 3488 3068 628 2040 5760 5952
1637046755767,20,10,3644 0 0 0 0 0 0 0 0 0 0 0 0 1548 4516 5172 1948 0 0 0 0 0 0 0 0 1860 3488 3096 636 1952 5764 5932
1637046755783,20,10,3696 0 0 0 0 0 0 0 0 0 0 0 0 1568 4520 5184 1968 0 0 0 0 0 0 0 0 1844 3460 3104 620 1972 5756 5944
1637046755799,20,10,3660 0 0 0 0 0 0 0 0 0 0 0 0 1544 4508 5192 1976 0 0 0 0 0 0 0 0 1860 3488 3088 632 1944 5736 5948
1637046755845,20,10,3668 0 0 0 0 0 0 0 0 0 0 0 0 1556 4524 5176 1944 0 0 0 0 0 0 0 0 1832 3452 3108 644 1988 5760 5944
1637046755861,20,10,3680 0 0 0 0 0 0 0 0 0 0 0 0 1568 4528 5184 1948 0 0 0 0 0 0 0 0 1820 3468 3068 612 1988 5756 5984
1637046755892,20,10,3680 0 0 0 0 0 0 0 0 0 0 0 0 1572 4536 5168 1956 0 0 0 0 0 0 0 0 1852 3520 3084 608 1984 5756 5924
1637046755924,20,10,3700 0 0 0 0 0 0 0 0 0 0 0 0 1540 4512 5176 1984 0 0 0 0 0 0 0 0 1848 3472 3060 644 1972 5756 5916
1637046755955,20,10,3704 0 0 0 0 0 0 0 0 0 0 0 0 1572 4508 5188 1984 0 0 0 0 0 0 0 0 1872 3480 3080 652 1976 5736 5940
1637046756002,20,10,3712 0 0 0 0 0 0 0 0 0 0 0 0 1576 4492 5224 1968 0 0 0 0 0 0 0 0 1848 3468 3068 636 2000 5748 5944
1637046756017,20,10,3712 0 0 0 0 0 0 0 0 0 0 0 0 1552 4492 5164 2000 0 0 0 0 0 0 0 0 1852 3484 3100 664 1980 5732 5952
1637046756080,20,10,3716 0 0 0 0 0 0 0 0 0 0 0 0 1540 4520 5192 1980 0 0 0 0 0 0 0 0 1868 3496 3104 656 1984 5724 5980
1637046756111,20,10,3676 0 0 0 0 0 0 0 0 0 0 0 0 1544 4512 5184 1976 0 0 0 0 0 0 0 0 1836 3456 3104 664 2000 5752 5940
1637046756111,20,10,3728 0 0 0 0 0 0 0 0 0 0 0 0 1552 4496 5176 1976 0 0 0 0 0 0 0 0 1816 3456 3080 652 1988 5784 5952
1637046756220,20,10,3708 0 0 0 0 0 0 0 0 0 0 0 0 1568 4512 5208 2000 0 0 0 0 0 0 0 0 1788 3476 3088 636 1992 5756 5960
1637046756220,20,10,3716 0 0 0 0 0 0 0 0 0 0 0 0 1556 4516 5184 1992 0 0 0 0 0 0 0 0 1804 3464 3084 668 1984 5756 5964
1637046756220,20,10,3700 0 0 0 0 0 0 0 0 0 0 0 0 1584 4528 5168 1988 0 0 0 0 0 0 0 0 1808 3476 3084 656 1996 5776 5948
1637046756236,20,10,3700 0 0 0 0 0 0 0 0 0 0 0 0 1492 4524 5164 1964 0 0 0 0 0 0 0 0 1796 3508 3100 664 1972 5792 5944
1637046756283,20,10,3708 0 0 0 0 0 0 0 0 0 0 0 0 1560 4508 5180 1972 0 0 0 0 0 0 0 0 1796 3504 3088 668 1964 5764 5960
1637046756298,20,10,3704 0 0 0 0 0 0 0 0 0 0 0 0 1576 4520 5216 1960 0 0 0 0 0 0 0 0 1820 3508 3100 652 1988 5760 5956
1637046756345,20,10,3700 0 0 0 0 0 0 0 0 0 0 0 0 1564 4528 5180 1964 0 0 0 0 0 0 0 0 1800 3540 3104 668 1996 5736 5968
1637046756408,20,10,3724 0 0 0 0 0 0 0 0 0 0 0 0 1564 4520 5200 2000 0 0 0 0 0 0 0 0 1788 3544 3068 680 1988 5752 5956
1637046756408,20,10,3688 0 0 0 0 0 0 0 0 0 0 0 0 1560 4492 5216 2012 0 0 0 0 0 0 0 0 1812 3556 3100 664 2000 5744 5944
1637046756439,20,10,3704 0 0 0 0 0 0 0 0 0 0 0 0 1564 4504 5188 2036 0 0 0 0 0 0 0 0 1804 3564 3100 652 1988 5756 5916
1637046756470,20,10,3704 0 0 0 0 0 0 0 0 0 0 0 0 1580 4548 5196 1996 0 0 0 0 0 0 0 0 1804 3528 3104 656 1964 5788 5928
1637046756517,20,10,3708 0 0 0 0 0 0 0 0 0 0 0 0 1592 4536 5216 1972 0 0 0 0 0 0 0 0 1800 3472 3080 628 1972 5744 5964
1637046756517,20,10,3692 0 0 0 0 0 0 0 0 0 0 0 0 1588 4544 5200 2032 0 0 0 0 0 0 0 0 1804 3500 3084 664 1956 5756 5952
1637046756549,20,10,3688 0 0 0 0 0 0 0 0 0 0 0 0 1576 4544 5196 1984 0 0 0 0 0 0 0 0 1796 3488 3080 660 1972 5752 5940
1637046756580,20,10,3700 0 0 0 0 0 0 0 0 0 0 0 0 1592 4508 5224 1968 0 0 0 0 0 0 0 0 1840 3468 3068 668 1972 5740 5944
1637046756611,20,10,3712 0 0 0 0 0 0 0 0 0 0 0 0 1564 4504 5188 1996 0 0 0 0 0 0 0 0 1804 3500 3088 652 2000 5756 5940
1637046756674,20,10,3696 0 0 0 0 0 0 0 0 0 0 0 0 1584 4524 5220 1996 0 0 0 0 0 0 0 0 1796 3500 3084 656 1968 5760 5940
1637046756705,20,10,3676 0 0 0 0 0 0 0 0 0 0 0 0 1588 4520 5200 1976 0 0 0 0 0 0 0 0 1816 3500 3084 672 1984 5744 5984
1637046756720,20,10,3644 0 0 0 0 0 0 0 0 0 0 0 0 1600 4532 5216 1952 0 0 0 0 0 0 0 0 1800 3484 3092 720 1980 5784 5952
1637046756783,20,10,3676 0 0 0 0 0 0 0 0 0 0 0 0 1576 4548 5212 1988 0 0 0 0 0 0 0 0 1840 3496 3092 640 1996 5740 5936
1637046756783,20,10,3700 0 0 0 0 0 0 0 0 0 0 0 0 1576 4508 5204 2000 0 0 0 0 0 0 0 0 1808 3492 3112 644 1976 5752 5948
1637046756830,20,10,3700 0 0 0 0 0 0 0 0 0 0 0 0 1584 4508 5196 1980 0 0 0 0 0 0 0 0 1796 3524 3104 664 1976 5780 5948
1637046756845,20,10,3712 0 0 0 0 0 0 0 0 0 0 0 0 1568 4536 5216 1992 0 0 0 0 0 0 0 0 1804 3532 3084 636 1984 5764 5892
1637046756892,20,10,3700 0 0 0 0 0 0 0 0 0 0 0 0 1592 4552 5224 1992 0 0 0 0 0 0 0 0 1840 3548 3076 676 1988 5776 5948
1637046756908,20,10,3712 0 0 0 0 0 0 0 0 0 0 0 0 1596 4536 5216 1980 0 0 0 0 0 0 0 0 1804 3516 3088 672 1980 5760 5956
1637046756939,20,10,3696 0 0 0 0 0 0 0 0 0 0 0 0 1564 4544 5208 1996 0 0 0 0 0 0 0 0 1856 3532 3104 672 1980 5756 5952
1637046756970,20,10,3712 0 0 0 0 0 0 0 0 0 0 0 0 1568 4548 5196 2020 0 0 0 0 0 0 0 0 1824 3516 3108 676 1984 5776 5956
1637046757017,20,10,3696 0 0 0 0 0 0 0 0 0 0 0 0 1596 4540 5196 2016 0 0 0 0 0 0 0 0 1848 3568 3092 660 2004 5756 5948
1637046757049,20,10,3708 0 0 0 0 0 0 0 0 0 0 0 0 1612 4528 5184 2020 0 0 0 0 0 0 0 0 1864 3532 3096 664 1992 5776 5932
1637046757080,20,10,3696 0 0 0 0 0 0 0 0 0 0 0 0 1592 4500 5180 1996 0 0 0 0 0 0 0 0 1848 3576 3096 648 2012 5740 5940
1637046757095,20,10,3680 0 0 0 0 0 0 0 0 0 0 0 0 1604 4540 5196 1996 0 0 0 0 0 0 0 0 1820 3552 3108 640 1976 5764 5956
1637046757142,20,10,3700 0 0 0 0 0 0 0 0 0 0 0 0 1592 4536 5212 2024 0 0 0 0 0 0 0 0 1856 3584 3108 640 1992 5764 5952
1637046757158,20,10,3696 0 0 0 0 0 0 0 0 0 0 0 0 1604 4544 5212 2008 0 0 0 0 0 0 0 0 1852 3512 3104 660 1984 5764 5972
1637046757205,20,10,3692 0 0 0 0 0 0 0 0 0 0 0 0 1600 4504 5200 2032 0 0 0 0 0 0 0 0 1856 3588 3128 672 1996 5768 5936
1637046757236,20,10,3704 0 0 0 0 0 0 0 0 0 0 0 0 1592 4548 5184 2012 0 0 0 0 0 0 0 0 1840 3556 3104 636 1996 5776 5932
1637046757267,20,10,3692 0 0 0 0 0 0 0 0 0 0 0 0 1600 4548 5196 2012 0 0 0 0 0 0 0 0 1828 3564 3112 668 1996 5756 5960
1637046757283,20,10,3716 0 0 0 0 0 0 0 0 0 0 0 0 1596 4560 5192 2032 0 0 0 0 0 0 0 0 1856 3548 3100 664 2016 5764 5964
1637046757377,20,10,3712 0 0 0 0 0 0 0 0 0 0 0 0 1592 4548 5184 2032 0 0 0 0 0 0 0 0 1856 3584 3120 704 2016 5776 5940
1637046757377,20,10,3712 0 0 0 0 0 0 0 0 0 0 0 0 1596 4548 5216 2024 0 0 0 0 0 0 0 0 1868 3556 3104 656 2008 5776 5956
1637046757377,20,10,3700 0 0 0 0 0 0 0 0 0 0 0 0 1608 4560 5216 2020 0 0 0 0 0 0 0 0 1852 3576 3136 664 1996 5756 5988
1637046757408,20,10,3732 0 0 0 0 0 0 0 0 0 0 0 0 1604 4552 5188 2020 0 0 0 0 0 0 0 0 1872 3576 3108 664 2008 5768 5968
1637046757455,20,10,3708 0 0 0 0 0 0 0 0 0 0 0 0 1600 4516 5200 2012 0 0 0 0 0 0 0 0 1856 3588 3100 652 2032 5772 5940
1637046757486,20,10,3708 0 0 0 0 0 0 0 0 0 0 0 0 1612 4544 5196 2064 0 0 0 0 0 0 0 0 1872 3592 3136 652 1996 5772 5960
1637046757517,20,10,3684 0 0 0 0 0 0 0 0 0 0 0 0 1596 4524 5212 1980 0 0 0 0 0 0 0 0 1844 3548 3112 604 2000 5776 5968
1637046757564,20,10,3696 0 0 0 0 0 0 0 0 0 0 0 0 1608 4556 5224 1996 0 0 0 0 0 0 0 0 1864 3564 3132 644 1980 5768 5960
1637046757580,20,10,3688 0 0 0 0 0 0 0 0 0 0 0 0 1612 4532 5204 1992 0 0 0 0 0 0 0 0 1852 3576 3112 636 2020 5756 5932
1637046757611,20,10,3680 0 0 0 0 0 0 0 0 0 0 0 0 1616 4568 5176 1972 0 0 0 0 0 0 0 0 1852 3576 3104 636 2036 5776 5964
1637046757642,20,10,3700 0 0 0 0 0 0 0 0 0 0 0 0 1580 4544 5184 1992 0 0 0 0 0 0 0 0 1852 3596 3120 628 2012 5760 5952
1637046757658,20,10,3704 0 0 0 0 0 0 0 0 0 0 0 0 1580 4544 5180 1984 0 0 0 0 0 0 0 0 1892 3588 3124 616 2004 5776 5940
1637046757689,20,10,3704 0 0 0 0 0 0 0 0 0 0 0 0 1596 4532 5192 1932 0 0 0 0 0 0 0 0 1856 3572 3092 636 2028 5744 5948
1637046757720,20,10,3684 0 0 0 0 0 0 0 0 0 0 0 0 1616 4536 5180 1948 0 0 0 0 0 0 0 0 1856 3592 3112 636 1996 5748 5932
1637046757767,20,10,3696 0 0 0 0 0 0 0 0 0 0 0 0 1616 4524 5184 1956 0 0 0 0 0 0 0 0 1872 3576 3108 620 1972 5776 5944
1637046757830,20,10,3676 0 0 0 0 0 0 0 0 0 0 0 0 1596 4536 5200 1940 0 0 0 0 0 0 0 0 1872 3568 3084 640 1968 5744 5932
1637046757830,20,10,3664 0 0 0 0 0 0 0 0 0 0 0 0 1596 4540 5164 1916 0 0 0 0 0 0 0 0 1852 3572 3116 652 1936 5756 5948
1637046757861,20,10,3668 0 0 0 0 0 0 0 0 0 0 0 0 1580 4540 5180 1948 0 0 0 0 0 0 0 0 1848 3584 3096 588 1928 5744 5928
1637046757908,20,10,3684 0 0 0 0 0 0 0 0 0 0 0 0 1600 4528 5176 1932 0 0 0 0 0 0 0 0 1864 3576 3104 628 1932 5740 5916
1637046757924,20,10,3680 0 0 0 0 0 0 0 0 0 0 0 0 1596 4540 5168 1948 0 0 0 0 0 0 0 0 1832 3576 3088 640 1940 5752 5944
1637046757970,20,10,3712 0 0 0 0 0 0 0 0 0 0 0 0 1560 4544 5184 1948 0 0 0 0 0 0 0 0 1840 3548 3096 632 1916 5752 5932
1637046757986,20,10,3680 0 0 0 0 0 0 0 0 0 0 0 0 1604 4540 5184 1976 0 0 0 0 0 0 0 0 1860 3584 3100 636 1948 5752 5956
1637046758002,20,10,3668 0 0 0 0 0 0 0 0 0 0 0 0 1572 4540 5192 1968 0 0 0 0 0 0 0 0 1852 3576 3100 644 1948 5732 5948
1637046758049,20,10,3692 0 0 0 0 0 0 0 0 0 0 0 0 1592 4528 5192 1952 0 0 0 0 0 0 0 0 1868 3564 3108 632 1964 5748 5960
1637046758080,20,10,3676 0 0 0 0 0 0 0 0 0 0 0 0 1600 4528 5160 1980 0 0 0 0 0 0 0 0 1876 3584 3100 648 1968 5732 5948
1637046758142,20,10,3696 0 0 0 0 0 0 0 0 0 0 0 0 1592 4524 5168 2000 0 0 0 0 0 0 0 0 1848 3576 3100 656 1976 5732 5936
1637046758142,20,10,3680 0 0 0 0 0 0 0 0 0 0 0 0 1580 4520 5180 1980 0 0 0 0 0 0 0 0 1892 3584 3104 604 1944 5748 5976
1637046758174,20,10,3672 0 0 0 0 0 0 0 0 0 0 0 0 1564 4540 5180 2000 0 0 0 0 0 0 0 0 1868 3616 3112 620 1952 5772 5932
1637046758220,20,10,3692 0 0 0 0 0 0 0 0 0 0 0 0 1580 4548 5180 2000 0 0 0 0 0 0 0 0 1856 3600 3060 620 1956 5764 5956
1637046758252,20,10,3696 0 0 0 0 0 0 0 0 0 0 0 0 1604 4532 5160 1980 0 0 0 0 0 0 0 0 1888 3616 3128 588 1948 5748 5948
1637046758283,20,10,3692 0 0 0 0 0 0 0 0 0 0 0 0 1576 4520 5176 1988 0 0 0 0 0 0 0 0 1876 3616 3092 628 1972 5752 5940
1637046758314,20,10,3696 0 0 0 0 0 0 0 0 0 0 0 0 1580 4512 5180 1984 0 0 0 0 0 0 0 0 1884 3620 3092 656 1976 5776 5932
1637046758345,20,10,3712 0 0 0 0 0 0 0 0 0 0 0 0 1592 4536 5172 2004 0 0 0 0 0 0 0 0 1872 3580 3092 656 1948 5772 5932
1637046758377,20,10,3696 0 0 0 0 0 0 0 0 0 0 0 0 1596 4524 5184 2008 0 0 0 0 0 0 0 0 1868 3600 3096 652 1972 5740 5952
1637046758408,20,10,3708 0 0 0 0 0 0 0 0 0 0 0 0 1596 4528 5184 1988 0 0 0 0 0 0 0 0 1852 3580 3100 632 1968 5740 5936
1637046758424,20,10,3728 0 0 0 0 0 0 0 0 0 0 0 0 1616 4524 5160 1964 0 0 0 0 0 0 0 0 1852 3556 3096 640 1968 5736 5956
1637046758455,20,10,3700 0 0 0 0 0 0 0 0 0 0 0 0 1588 4540 5164 1956 0 0 0 0 0 0 0 0 1848 3560 3076 628 1904 5724 5916
1637046758502,20,10,3680 0 0 0 0 0 0 0 0 0 0 0 0 1588 4520 5188 1932 0 0 0 0 0 0 0 0 1840 3544 3076 640 1968 5756 5948
1637046758533,20,10,3744 0 0 0 0 0 0 0 0 0 0 0 0 1600 4536 5192 1952 0 0 0 0 0 0 0 0 1840 3516 3112 672 1968 5728 5952
1637046758580,20,10,3708 0 0 0 0 0 0 0 0 0 0 0 0 1592 4528 5168 1984 0 0 0 0 0 0 0 0 1820 3560 3116 656 1972 5728 5944
1637046758595,20,10,3704 0 0 0 0 0 0 0 0 0 0 0 0 1588 4520 5156 1968 0 0 0 0 0 0 0 0 1824 3560 3088 664 1944 5752 5948
1637046758626,20,10,3684 0 0 0 0 0 0 0 0 0 0 0 0 1564 4516 5172 1992 0 0 0 0 0 0 0 0 1816 3568 3112 656 1924 5744 5944
1637046758658,20,10,3708 0 0 0 0 0 0 0 0 0 0 0 0 1596 4528 5136 1984 0 0 0 0 0 0 0 0 1872 3548 3104 660 1960 5756 5956
1637046758689,20,10,3732 0 0 0 0 0 0 0 0 0 0 0 0 1588 4544 5152 1980 0 0 0 0 0 0 0 0 1836 3532 3092 644 1960 5744 5916
1637046758720,20,10,3732 0 0 0 0 0 0 0 0 0 0 0 0 1552 4516 5144 1996 0 0 0 0 0 0 0 0 1848 3584 3116 672 1964 5776 5944
1637046758752,20,10,3728 0 0 0 0 0 0 0 0 0 0 0 0 1580 4528 5180 1992 0 0 0 0 0 0 0 0 1856 3556 3112 680 1972 5756 5936
1637046758767,20,10,3704 0 0 0 0 0 0 0 0 0 0 0 0 1576 4532 5148 2008 0 0 0 0 0 0 0 0 1848 3576 3112 664 1972 5724 5928
1637046758814,20,10,3736 0 0 0 0 0 0 0 0 0 0 0 0 1572 4512 5168 2020 0 0 0 0 0 0 0 0 1832 3552 3116 676 1924 5724 5936
1637046758830,20,10,3736 0 0 0 0 0 0 0 0 0 0 0 0 1548 4508 5144 2032 0 0 0 0 0 0 0 0 1856 3524 3100 648 1920 5768 5924
1637046758876,20,10,3728 0 0 0 0 0 0 0 0 0 0 0 0 1560 4544 5148 1988 0 0 0 0 0 0 0 0 1828 3520 3112 680 1892 5756 5924
1637046758955,20,10,3720 0 0 0 0 0 0 0 0 0 0 0 0 1516 4508 5124 2028 0 0 0 0 0 0 0 0 1824 3552 3108 684 1920 5752 5936
1637046758970,20,10,3728 0 0 0 0 0 0 0 0 0 0 0 0 1560 4480 5116 2016 0 0 0 0 0 0 0 0 1832 3532 3092 680 1916 5744 5952
1637046758970,20,10,3736 0 0 0 0 0 0 0 0 0 0 0 0 1564 4508 5176 2024 0 0 0 0 0 0 0 0 1828 3540 3128 688 1984 5776 5932
1637046759001,20,10,3724 0 0 0 0 0 0 0 0 0 0 0 0 1556 4520 5148 2012 0 0 0 0 0 0 0 0 1840 3544 3116 660 1968 5760 5940
1637046759033,20,10,3708 0 0 0 0 0 0 0 0 0 0 0 0 1580 4516 5168 2020 0 0 0 0 0 0 0 0 1840 3564 3092 648 1948 5756 5932
1637046759064,20,10,3720 0 0 0 0 0 0 0 0 0 0 0 0 1592 4452 5184 2020 0 0 0 0 0 0 0 0 1848 3556 3100 664 1960 5756 5952
1637046759095,20,10,3728 0 0 0 0 0 0 0 0 0 0 0 0 1576 4524 5148 2012 0 0 0 0 0 0 0 0 1840 3548 3116 648 1948 5768 5956
1637046759111,20,10,3724 0 0 0 0 0 0 0 0 0 0 0 0 1584 4532 5160 1980 0 0 0 0 0 0 0 0 1836 3548 3100 676 1976 5764 5940
1637046759158,20,10,3728 0 0 0 0 0 0 0 0 0 0 0 0 1580 4500 5172 1964 0 0 0 0 0 0 0 0 1836 3540 3104 672 1980 5764 5940
1637046759189,20,10,3692 0 0 0 0 0 0 0 0 0 0 0 0 1596 4496 5184 1964 0 0 0 0 0 0 0 0 1824 3584 3096 644 1992 5752 5940
1637046759220,20,10,3708 0 0 0 0 0 0 0 0 0 0 0 0 1564 4520 5180 1972 0 0 0 0 0 0 0 0 1840 3548 3084 672 1964 5724 5932
1637046759267,20,10,3720 0 0 0 0 0 0 0 0 0 0 0 0 1580 4504 5164 1984 0 0 0 0 0 0 0 0 1872 3560 3080 664 1984 5760 5932
1637046759283,20,10,3696 0 0 0 0 0 0 0 0 0 0 0 0 1600 4520 5164 1960 0 0 0 0 0 0 0 0 1872 3576 3108 636 1956 5752 5952
1637046759314,20,10,3712 0 0 0 0 0 0 0 0 0 0 0 0 1592 4512 5164 1988 0 0 0 0 0 0 0 0 1888 3556 3128 648 1964 5748 5940
1637046759361,20,10,3708 0 0 0 0 0 0 0 0 0 0 0 0 1588 4520 5164 1984 0 0 0 0 0 0 0 0 1840 3572 3124 624 2016 5768 5928
1637046759392,20,10,3716 0 0 0 0 0 0 0 0 0 0 0 0 1580 4516 5164 1980 0 0 0 0 0 0 0 0 1852 3580 3116 640 1984 5756 5940
1637046759423,20,10,3744 0 0 0 0 0 0 0 0 0 0 0 0 1580 4528 5152 2016 0 0 0 0 0 0 0 0 1880 3588 3100 636 1980 5772 5948
1637046759470,20,10,3704 0 0 0 0 0 0 0 0 0 0 0 0 1576 4508 5156 2008 0 0 0 0 0 0 0 0 1876 3632 3100 648 1980 5752 5944
1637046759486,20,10,3712 0 0 0 0 0 0 0 0 0 0 0 0 1596 4508 5156 2008 0 0 0 0 0 0 0 0 1856 3644 3128 664 2012 5756 5932
1637046759501,20,10,3700 0 0 0 0 0 0 0 0 0 0 0 0 1576 4508 5172 1988 0 0 0 0 0 0 0 0 1888 3640 3124 656 1996 5768 5960
1637046759564,20,10,3716 0 0 0 0 0 0 0 0 0 0 0 0 1580 4552 5180 2020 0 0 0 0 0 0 0 0 1876 3660 3108 664 2000 5752 5936
1637046759564,20,10,3644 0 0 0 0 0 0 0 0 0 0 0 0 1588 4520 5196 1988 0 0 0 0 0 0 0 0 1868 3652 3116 616 1980 5720 5940
1637046759611,20,10,3712 0 0 0 0 0 0 0 0 0 0 0 0 1576 4544 5180 1992 0 0 0 0 0 0 0 0 1836 3640 3116 600 1980 5720 5952
1637046759626,20,10,3664 0 0 0 0 0 0 0 0 0 0 0 0 1584 4508 5168 2008 0 0 0 0 0 0 0 0 1864 3644 3100 620 1968 5736 5916
1637046759658,20,10,3676 0 0 0 0 0 0 0 0 0 0 0 0 1560 4512 5188 2008 0 0 0 0 0 0 0 0 1884 3620 3116 620 1996 5764 5916
1637046759705,20,10,3704 0 0 0 0 0 0 0 0 0 0 0 0 1584 4516 5180 2008 0 0 0 0 0 0 0 0 1860 3632 3100 624 1988 5724 5944
1637046759767,20,10,3700 0 0 0 0 0 0 0 0 0 0 0 0 1592 4544 5180 2012 0 0 0 0 0 0 0 0 1888 3632 3124 632 1992 5744 5952
1637046759767,20,10,3676 0 0 0 0 0 0 0 0 0 0 0 0 1592 4508 5240 2012 0 0 0 0 0 0 0 0 1896 3656 3112 632 1976 5724 5932
1637046759798,20,10,3692 0 0 0 0 0 0 0 0 0 0 0 0 1588 4520 5192 2016 0 0 0 0 0 0 0 0 1860 3656 3120 632 1980 5724 5924
1637046759830,20,10,3692 0 0 0 0 0 0 0 0 0 0 0 0 1600 4528 5192 2028 0 0 0 0 0 0 0 0 1880 3632 3108 620 1992 5756 5940
1637046759861,20,10,3676 0 0 0 0 0 0 0 0 0 0 0 0 1576 4524 5172 1996 0 0 0 0 0 0 0 0 1880 3632 3100 632 1984 5740 5936
1637046759923,20,10,3692 0 0 0 0 0 0 0 0 0 0 0 0 1592 4516 5168 1996 0 0 0 0 0 0 0 0 1852 3596 3120 628 1984 5736 5952
1637046759923,20,10,3672 0 0 0 0 0 0 0 0 0 0 0 0 1600 4528 5148 1984 0 0 0 0 0 0 0 0 1852 3588 3100 636 1980 5728 5932
1637046759955,20,10,3680 0 0 0 0 0 0 0 0 0 0 0 0 1584 4528 5200 2016 0 0 0 0 0 0 0 0 1856 3632 3096 648 1984 5732 5972
1637046759986,20,10,3660 0 0 0 0 0 0 0 0 0 0 0 0 1592 4512 5200 2016 0 0 0 0 0 0 0 0 1860 3648 3104 668 1984 5736 5936
1637046760017,20,10,3712 0 0 0 0 0 0 0 0 0 0 0 0 1584 4516 5184 1996 0 0 0 0 0 0 0 0 1848 3648 3108 636 1984 5788 5928
1637046760064,20,10,3696 0 0 0 0 0 0 0 0 0 0 0 0 1592 4536 5192 2032 0 0 0 0 0 0 0 0 1852 3644 3108 620 1972 5744 5964
1637046760080,20,10,3688 0 0 0 0 0 0 0 0 0 0 0 0 1596 4496 5172 2008 0 0 0 0 0 0 0 0 1852 3660 3124 660 1980 5744 5968
1637046760111,20,10,3676 0 0 0 0 0 0 0 0 0 0 0 0 1588 4528 5196 2036 0 0 0 0 0 0 0 0 1856 3600 3104 624 2000 5744 5940
1637046760142,20,10,3692 0 0 0 0 0 0 0 0 0 0 0 0 1592 4508 5188 2004 0 0 0 0 0 0 0 0 1852 3620 3104 620 1980 5760 5940
1637046760173,20,10,3684 0 0 0 0 0 0 0 0 0 0 0 0 1596 4560 5184 2012 0 0 0 0 0 0 0 0 1836 3604 3112 616 1980 5724 5940
1637046760205,20,10,3704 0 0 0 0 0 0 0 0 0 0 0 0 1580 4536 5216 2024 0 0 0 0 0 0 0 0 1848 3604 3112 620 1992 5752 5952
1637046760236,20,10,3700 0 0 0 0 0 0 0 0 0 0 0 0 1580 4524 5184 2028 0 0 0 0 0 0 0 0 1832 3624 3116 660 1984 5720 5948
1637046760267,20,10,3708 0 0 0 0 0 0 0 0 0 0 0 0 1616 4528 5204 2016 0 0 0 0 0 0 0 0 1856 3616 3116 672 1996 5728 5940
1637046760298,20,10,3712 0 0 0 0 0 0 0 0 0 0 0 0 1596 4504 5212 2024 0 0 0 0 0 0 0 0 1832 3640 3132 652 1976 5756 5972
1637046760376,20,10,3724 0 0 0 0 0 0 0 0 0 0 0 0 1584 4540 5176 1996 0 0 0 0 0 0 0 0 1804 3592 3108 628 1936 5784 5944
1637046760376,20,10,3704 0 0 0 0 0 0 0 0 0 0 0 0 1596 4540 5216 2012 0 0 0 0 0 0 0 0 1852 3588 3072 636 1980 5732 5944
1637046760392,20,10,3700 0 0 0 0 0 0 0 0 0 0 0 0 1608 4492 5180 2032 0 0 0 0 0 0 0 0 1864 3584 3140 644 1980 5720 5948
1637046760439,20,10,3668 0 0 0 0 0 0 0 0 0 0 0 0 1588 4544 5200 2080 0 0 0 0 0 0 0 0 1856 3596 3128 640 1992 5732 5952
1637046760486,20,10,3704 0 0 0 0 0 0 0 0 0 0 0 0 1612 4504 5196 2032 0 0 0 0 0 0 0 0 1852 3596 3128 660 1988 5740 5944
1637046760486,20,10,3716 0 0 0 0 0 0 0 0 0 0 0 0 1584 4508 5176 2084 0 0 0 0 0 0 0 0 1856 3592 3132 636 2000 5752 5956
1637046760580,20,10,3712 0 0 0 0 0 0 0 0 0 0 0 0 1596 4512 5184 2036 0 0 0 0 0 0 0 0 1880 3600 3108 656 2000 5744 5936
1637046760580,20,10,3704 0 0 0 0 0 0 0 0 0 0 0 0 1580 4524 5184 2072 0 0 0 0 0 0 0 0 1848 3612 3128 656 2020 5740 5956
1637046760595,20,10,3708 0 0 0 0 0 0 0 0 0 0 0 0 1592 4540 5180 2056 0 0 0 0 0 0 0 0 1840 3596 3112 644 2000 5748 5928
1637046760611,20,10,3704 0 0 0 0 0 0 0 0 0 0 0 0 1608 4528 5180 2072 0 0 0 0 0 0 0 0 1860 3592 3120 644 1980 5760 5936
1637046760642,20,10,3724 0 0 0 0 0 0 0 0 0 0 0 0 1596 4536 5212 2064 0 0 0 0 0 0 0 0 1888 3564 3120 644 2016 5764 5952
1637046760673,20,10,3728 0 0 0 0 0 0 0 0 0 0 0 0 1608 4508 5196 2036 0 0 0 0 0 0 0 0 1856 3596 3120 684 1980 5756 5944
1637046760705,20,10,3696 0 0 0 0 0 0 0 0 0 0 0 0 1592 4528 5216 2052 0 0 0 0 0 0 0 0 1860 3564 3128 676 2024 5752 5928
1637046760736,20,10,3732 0 0 0 0 0 0 0 0 0 0 0 0 1616 4512 5208 2068 0 0 0 0 0 0 0 0 1872 3580 3128 704 2012 5740 5960
1637046760798,20,10,3720 0 0 0 0 0 0 0 0 0 0 0 0 1608 4540 5208 2064 0 0 0 0 0 0 0 0 1848 3588 3104 692 1988 5740 5936
1637046760798,20,10,3720 0 0 0 0 0 0 0 0 0 0 0 0 1604 4500 5208 2028 0 0 0 0 0 0 0 0 1828 3600 3076 696 2024 5728 5952
1637046760861,20,10,3716 0 0 0 0 0 0 0 0 0 0 0 0 1608 4528 5224 2020 0 0 0 0 0 0 0 0 1852 3576 3088 672 2012 5772 5932
1637046760877,20,10,3716 0 0 0 0 0 0 0 0 0 0 0 0 1616 4528 5200 2024 0 0 0 0 0 0 0 0 1828 3584 3128 656 2016 5764 5948
1637046760908,20,10,3728 0 0 0 0 0 0 0 0 0 0 0 0 1604 4516 5204 2048 0 0 0 0 0 0 0 0 1828 3564 3152 672 2000 5740 5940
1637046760955,20,10,3728 0 0 0 0 0 0 0 0 0 0 0 0 1612 4500 5204 2036 0 0 0 0 0 0 0 0 1848 3588 3104 696 2032 5768 5968
1637046760970,20,10,3736 0 0 0 0 0 0 0 0 0 0 0 0 1612 4532 5192 2040 0 0 0 0 0 0 0 0 1856 3576 3144 676 1988 5756 5944
1637046760986,20,10,3720 0 0 0 0 0 0 0 0 0 0 0 0 1600 4528 5196 2044 0 0 0 0 0 0 0 0 1828 3584 3108 676 2032 5772 5952
1637046761017,20,10,3732 0 0 0 0 0 0 0 0 0 0 0 0 1608 4520 5216 2016 0 0 0 0 0 0 0 0 1840 3580 3136 692 2000 5764 5956
1637046761048,20,10,3736 0 0 0 0 0 0 0 0 0 0 0 0 1632 4560 5208 2036 0 0 0 0 0 0 0 0 1836 3608 3136 668 1976 5768 5952
1637046761111,20,10,3724 0 0 0 0 0 0 0 0 0 0 0 0 1596 4548 5220 2044 0 0 0 0 0 0 0 0 1852 3612 3112 668 2008 5772 5948
1637046761126,20,10,3712 0 0 0 0 0 0 0 0 0 0 0 0 1612 4516 5208 2040 0 0 0 0 0 0 0 0 1836 3608 3148 744 1984 5764 5956
1637046761174,20,10,3708 0 0 0 0 0 0 0 0 0 0 0 0 1612 4524 5224 2044 0 0 0 0 0 0 0 0 1888 3612 3108 700 2020 5780 5940
1637046761189,20,10,3744 0 0 0 0 0 0 0 0 0 0 0 0 1612 4544 5200 2072 0 0 0 0 0 0 0 0 1864 3604 3144 676 2020 5776 5936
1637046761236,20,10,3708 0 0 0 0 0 0 0 0 0 0 0 0 1596 4528 5216 2048 0 0 0 0 0 0 0 0 1884 3616 3128 692 2020 5732 5952
1637046761252,20,10,3728 0 0 0 0 0 0 0 0 0 0 0 0 1612 4508 5200 2032 0 0 0 0 0 0 0 0 1856 3596 3120 688 1996 5780 5956
1637046761283,20,10,3732 0 0 0 0 0 0 0 0 0 0 0 0 1596 4536 5224 2036 0 0 0 0 0 0 0 0 1880 3564 3164 680 1996 5748 5948
1637046761314,20,10,3708 0 0 0 0 0 0 0 0 0 0 0 0 1600 4512 5224 2032 0 0 0 0 0 0 0 0 1868 3584 3148 692 1996 5780 5948
1637046761345,20,10,3744 0 0 0 0 0 0 0 0 0 0 0 0 1580 4508 5220 2040 0 0 0 0 0 0 0 0 1852 3564 3116 652 2004 5780 5960
1637046761392,20,10,3732 0 0 0 0 0 0 0 0 0 0 0 0 1596 4524 5228 2020 0 0 0 0 0 0 0 0 1888 3604 3124 660 2016 5788 5952
1637046761408,20,10,3708 0 0 0 0 0 0 0 0 0 0 0 0 1616 4516 5220 2040 0 0 0 0 0 0 0 0 1888 3604 3132 664 2016 5764 5944
1637046761439,20,10,3748 0 0 0 0 0 0 0 0 0 0 0 0 1612 4528 5216 2036 0 0 0 0 0 0 0 0 1892 3616 3132 676 2016 5792 5968
1637046761486,20,10,3680 0 0 0 0 0 0 0 0 0 0 0 0 1600 4536 5224 2048 0 0 0 0 0 0 0 0 1872 3640 3132 688 2020 5768 5948
1637046761517,20,10,3736 0 0 0 0 0 0 0 0 0 0 0 0 1612 4544 5188 2028 0 0 0 0 0 0 0 0 1884 3616 3136 660 2008 5752 5952
1637046761533,20,10,3724 0 0 0 0 0 0 0 0 0 0 0 0 1624 4532 5208 2044 0 0 0 0 0 0 0 0 1896 3612 3144 668 2040 5756 5940
1637046761611,20,10,3732 0 0 0 0 0 0 0 0 0 0 0 0 1624 4524 5212 2040 0 0 0 0 0 0 0 0 1892 3648 3144 680 2020 5772 5948
1637046761611,20,10,3716 0 0 0 0 0 0 0 0 0 0 0 0 1616 4516 5184 2004 0 0 0 0 0 0 0 0 1888 3628 3152 688 2012 5796 5916
1637046761643,20,10,3744 0 0 0 0 0 0 0 0 0 0 0 0 1616 4500 5192 2048 0 0 0 0 0 0 0 0 1892 3648 3152 692 2012 5756 5964
1637046761674,20,10,3740 0 0 0 0 0 0 0 0 0 0 0 0 1616 4540 5196 2052 0 0 0 0 0 0 0 0 1868 3628 3132 680 2016 5792 5960
1637046761720,20,10,3728 0 0 0 0 0 0 0 0 0 0 0 0 1604 4516 5208 2060 0 0 0 0 0 0 0 0 1920 3620 3120 672 2012 5776 5948
1637046761736,20,10,3740 0 0 0 0 0 0 0 0 0 0 0 0 1596 4532 5180 2056 0 0 0 0 0 0 0 0 1900 3600 3136 672 2016 5764 5952
1637046761767,20,10,3732 0 0 0 0 0 0 0 0 0 0 0 0 1612 4504 5212 2064 0 0 0 0 0 0 0 0 1884 3644 3168 672 2012 5764 5968
1637046761814,20,10,3740 0 0 0 0 0 0 0 0 0 0 0 0 1624 4496 5204 2040 0 0 0 0 0 0 0 0 1880 3580 3104 632 2016 5732 5940
1637046761814,20,10,3732 0 0 0 0 0 0 0 0 0 0 0 0 1592 4500 5188 2048 0 0 0 0 0 0 0 0 1888 3636 3124 632 2044 5784 5948
1637046761845,20,10,3780 0 0 0 0 0 0 0 0 0 0 0 0 1632 4492 5216 2080 0 0 0 0 0 0 0 0 1900 3612 3128 652 2044 5768 5936
1637046761877,20,10,3708 0 0 0 0 0 0 0 0 0 0 0 0 1616 4512 5196 2056 0 0 0 0 0 0 0 0 1912 3644 3136 620 2024 5780 5936
1637046761939,20,10,3708 0 0 0 0 0 0 0 0 0 0 0 0 1616 4504 5216 2064 0 0 0 0 0 0 0 0 1892 3648 3152 600 2044 5772 5952
1637046761955,20,10,3724 0 0 0 0 0 0 0 0 0 0 0 0 1604 4476 5208 2060 0 0 0 0 0 0 0 0 1880 3648 3148 628 2012 5784 5948
1637046761986,20,10,3720 0 0 0 0 0 0 0 0 0 0 0 0 1608 4520 5216 2028 0 0 0 0 0 0 0 0 1912 3632 3152 632 2028 5772 5944
1637046762017,20,10,3704 0 0 0 0 0 0 0 0 0 0 0 0 1592 4484 5200 2032 0 0 0 0 0 0 0 0 1884 3644 3124 632 1980 5772 5960
1637046762064,20,10,3736 0 0 0 0 0 0 0 0 0 0 0 0 1584 4484 5224 2040 0 0 0 0 0 0 0 0 1896 3664 3136 636 2016 5764 5936
1637046762095,20,10,3704 0 0 0 0 0 0 0 0 0 0 0 0 1584 4484 5196 2028 0 0 0 0 0 0 0 0 1924 3660 3128 632 2020 5768 5912
1637046762158,20,10,3736 0 0 0 0 0 0 0 0 0 0 0 0 1592 4512 5212 2044 0 0 0 0 0 0 0 0 1912 3652 3132 628 2020 5764 5936
1637046762158,20,10,3740 0 0 0 0 0 0 0 0 0 0 0 0 1584 4480 5204 2052 0 0 0 0 0 0 0 0 1924 3632 3136 640 2028 5756 5940
1637046762158,20,10,3716 0 0 0 0 0 0 0 0 0 0 0 0 1600 4484 5216 2060 0 0 0 0 0 0 0 0 1904 3644 3152 652 2012 5784 5948
1637046762205,20,10,3740 0 0 0 0 0 0 0 0 0 0 0 0 1616 4508 5188 2048 0 0 0 0 0 0 0 0 1884 3656 3128 660 2052 5760 5948
1637046762236,20,10,3716 0 0 0 0 0 0 0 0 0 0 0 0 1556 4504 5208 2020 0 0 0 0 0 0 0 0 1908 3648 3152 664 2036 5748 5980
1637046762283,20,10,3708 0 0 0 0 0 0 0 0 0 0 0 0 1568 4508 5180 2048 0 0 0 0 0 0 0 0 1908 3664 3120 648 2040 5776 5936
1637046762298,20,10,3716 0 0 0 0 0 0 0 0 0 0 0 0 1588 4476 5180 2056 0 0 0 0 0 0 0 0 1916 3656 3128 640 2040 5772 5952
1637046762333,20,10,3720 0 0 0 0 0 0 0 0 0 0 0 0 1600 4516 5196 2064 0 0 0 0 0 0 0 0 1912 3668 3116 620 2048 5780 5984
1637046762364,20,10,3728 0 0 0 0 0 0 0 0 0 0 0 0 1612 4480 5180 2056 0 0 0 0 0 0 0 0 1896 3688 3128 640 2012 5756 5944
1637046762395,20,10,3704 0 0 0 0 0 0 0 0 0 0 0 0 1592 4504 5200 2024 0 0 0 0 0 0 0 0 1928 3628 3200 664 2056 5760 5948
1637046762427,20,10,3676 0 0 0 0 0 0 0 0 0 0 0 0 1612 4528 5192 2012 0 0 0 0 0 0 0 0 1920 3648 3136 648 2020 5756 5968
1637046762443,20,10,3732 0 0 0 0 0 0 0 0 0 0 0 0 1600 4500 5180 1976 0 0 0 0 0 0 0 0 1920 3656 3132 648 2004 5744 5940
1637046762505,20,10,3732 0 0 0 0 0 0 0 0 0 0 0 0 1604 4516 5216 1992 0 0 0 0 0 0 0 0 1920 3640 3144 644 1992 5756 5940
1637046762521,20,10,3728 0 0 0 0 0 0 0 0 0 0 0 0 1604 4504 5204 1972 0 0 0 0 0 0 0 0 1916 3640 3152 640 2036 5708 5944
1637046762552,20,10,3716 0 0 0 0 0 0 0 0 0 0 0 0 1564 4500 5232 2004 0 0 0 0 0 0 0 0 1916 3648 3148 624 2024 5756 5932
1637046762583,20,10,3696 0 0 0 0 0 0 0 0 0 0 0 0 1576 4536 5204 2012 0 0 0 0 0 0 0 0 1908 3652 3136 596 2020 5764 5932
1637046762614,20,10,3740 0 0 0 0 0 0 0 0 0 0 0 0 1588 4500 5212 1968 0 0 0 0 0 0 0 0 1920 3648 3152 648 2012 5740 5968
1637046762663,20,10,3700 0 0 0 0 0 0 0 0 0 0 0 0 1584 4520 5168 2012 0 0 0 0 0 0 0 0 1920 3648 3148 620 2032 5744 5936
1637046762679,20,10,3696 0 0 0 0 0 0 0 0 0 0 0 0 1604 4500 5200 2016 0 0 0 0 0 0 0 0 1920 3648 3156 628 2040 5744 5964
1637046762710,20,10,3704 0 0 0 0 0 0 0 0 0 0 0 0 1584 4476 5192 1992 0 0 0 0 0 0 0 0 1916 3656 3144 640 2016 5744 5940
1637046762757,20,10,3720 0 0 0 0 0 0 0 0 0 0 0 0 1608 4496 5200 2012 0 0 0 0 0 0 0 0 1908 3648 3124 652 2012 5752 5940
1637046762820,20,10,3716 0 0 0 0 0 0 0 0 0 0 0 0 1588 4504 5184 1996 0 0 0 0 0 0 0 0 1936 3648 3136 660 2008 5740 5944
1637046762820,20,10,3692 0 0 0 0 0 0 0 0 0 0 0 0 1600 4504 5180 2012 0 0 0 0 0 0 0 0 1936 3652 3128 660 2020 5768 5956
1637046762835,20,10,3684 0 0 0 0 0 0 0 0 0 0 0 0 1592 4492 5188 2024 0 0 0 0 0 0 0 0 1904 3648 3140 648 1996 5740 5932
1637046762898,20,10,3712 0 0 0 0 0 0 0 0 0 0 0 0 1600 4400 5232 2000 0 0 0 0 0 0 0 0 1916 3652 3152 688 1988 5752 5948
1637046762898,20,10,3712 0 0 0 0 0 0 0 0 0 0 0 0 1596 4440 5208 2000 0 0 0 0 0 0 0 0 1864 3644 3132 652 1996 5760 5916
1637046762929,20,10,3692 0 0 0 0 0 0 0 0 0 0 0 0 1580 4488 5208 2000 0 0 0 0 0 0 0 0 1912 3628 3124 664 2000 5768 5944
1637046762961,20,10,3732 0 0 0 0 0 0 0 0 0 0 0 0 1588 4504 5200 2000 0 0 0 0 0 0 0 0 1912 3624 3124 672 2012 5756 5948
1637046763008,20,10,3736 0 0 0 0 0 0 0 0 0 0 0 0 1576 4476 5192 2012 0 0 0 0 0 0 0 0 1916 3612 3144 672 2000 5756 5948
1637046763040,20,10,3712 0 0 0 0 0 0 0 0 0 0 0 0 1572 4496 5200 2000 0 0 0 0 0 0 0 0 1912 3612 3096 648 2000 5780 5960
1637046763070,20,10,3736 0 0 0 0 0 0 0 0 0 0 0 0 1576 4480 5184 1980 0 0 0 0 0 0 0 0 1924 3632 3120 672 2016 5744 5952
1637046763102,20,10,3716 0 0 0 0 0 0 0 0 0 0 0 0 1576 4484 5204 2032 0 0 0 0 0 0 0 0 1912 3628 3136 652 2012 5756 5956
1637046763133,20,10,3716 0 0 0 0 0 0 0 0 0 0 0 0 1576 4468 5180 1988 0 0 0 0 0 0 0 0 1928 3628 3116 640 2008 5760 5912
1637046763165,20,10,3716 0 0 0 0 0 0 0 0 0 0 0 0 1596 4500 5204 2008 0 0 0 0 0 0 0 0 1944 3616 3124 628 2048 5776 5936
1637046763197,20,10,3692 0 0 0 0 0 0 0 0 0 0 0 0 1592 4504 5184 2032 0 0 0 0 0 0 0 0 1948 3628 3132 664 2024 5756 5948
1637046763213,20,10,3732 0 0 0 0 0 0 0 0 0 0 0 0 1584 4492 5188 2008 0 0 0 0 0 0 0 0 1952 3632 3144 704 2008 5764 5944
1637046763260,20,10,3716 0 0 0 0 0 0 0 0 0 0 0 0 1588 4500 5188 2032 0 0 0 0 0 0 0 0 1924 3648 3156 648 2016 5740 5968
1637046763275,20,10,3708 0 0 0 0 0 0 0 0 0 0 0 0 1596 4488 5200 2012 0 0 0 0 0 0 0 0 1900 3636 3124 636 2016 5768 5948
1637046763322,20,10,3736 0 0 0 0 0 0 0 0 0 0 0 0 1600 4492 5164 2040 0 0 0 0 0 0 0 0 1932 3620 3144 652 1980 5756 5956
1637046763369,20,10,3724 0 0 0 0 0 0 0 0 0 0 0 0 1580 4492 5192 2052 0 0 0 0 0 0 0 0 1928 3640 3120 636 2008 5744 5920
1637046763384,20,10,3716 0 0 0 0 0 0 0 0 0 0 0 0 1596 4492 5176 2000 0 0 0 0 0 0 0 0 1912 3628 3132 660 2004 5772 5912
1637046763416,20,10,3728 0 0 0 0 0 0 0 0 0 0 0 0 1588 4496 5180 2016 0 0 0 0 0 0 0 0 1892 3620 3132 644 2020 5740 5944
1637046763447,20,10,3728 0 0 0 0 0 0 0 0 0 0 0 0 1608 4472 5180 1996 0 0 0 0 0 0 0 0 1900 3648 3132 628 2048 5752 5964
1637046763478,20,10,3716 0 0 0 0 0 0 0 0 0 0 0 0 1592 4472 5200 2016 0 0 0 0 0 0 0 0 1936 3664 3132 648 2008 5756 5952
1637046763494,20,10,3708 0 0 0 0 0 0 0 0 0 0 0 0 1592 4496 5192 1996 0 0 0 0 0 0 0 0 1948 3648 3136 660 2056 5752 5924
1637046763525,20,10,3720 0 0 0 0 0 0 0 0 0 0 0 0 1588 4484 5196 2004 0 0 0 0 0 0 0 0 1932 3640 3128 644 2032 5740 5948
1637046763572,20,10,3700 0 0 0 0 0 0 0 0 0 0 0 0 1596 4496 5172 2016 0 0 0 0 0 0 0 0 1936 3644 3124 628 2048 5760 5924
1637046763636,20,10,3704 0 0 0 0 0 0 0 0 0 0 0 0 1632 4512 5200 2040 0 0 0 0 0 0 0 0 1936 3612 3092 648 2048 5728 5968
1637046763636,20,10,3720 0 0 0 0 0 0 0 0 0 0 0 0 1576 4472 5200 2008 0 0 0 0 0 0 0 0 1932 3644 3132 632 2028 5748 5956
1637046763668,20,10,3696 0 0 0 0 0 0 0 0 0 0 0 0 1608 4464 5180 2032 0 0 0 0 0 0 0 0 1924 3620 3132 652 2028 5764 5956
1637046763699,20,10,3704 0 0 0 0 0 0 0 0 0 0 0 0 1548 4464 5176 2032 0 0 0 0 0 0 0 0 1916 3660 3136 636 1996 5744 5936
1637046763761,20,10,3708 0 0 0 0 0 0 0 0 0 0 0 0 1584 4480 5188 2036 0 0 0 0 0 0 0 0 1928 3632 3144 632 2000 5780 5956
1637046763761,20,10,3716 0 0 0 0 0 0 0 0 0 0 0 0 1600 4476 5196 2032 0 0 0 0 0 0 0 0 1920 3664 3132 656 2016 5768 5980
1637046763777,20,10,3724 0 0 0 0 0 0 0 0 0 0 0 0 1612 4488 5172 2016 0 0 0 0 0 0 0 0 1928 3648 3144 648 2012 5724 5964
1637046763824,20,10,3720 0 0 0 0 0 0 0 0 0 0 0 0 1600 4476 5216 2016 0 0 0 0 0 0 0 0 1928 3640 3136 656 2064 5764 5920
1637046763855,20,10,3692 0 0 0 0 0 0 0 0 0 0 0 0 1608 4448 5196 2020 0 0 0 0 0 0 0 0 1908 3632 3116 668 2032 5760 5948
1637046763887,20,10,3724 0 0 0 0 0 0 0 0 0 0 0 0 1596 4480 5220 2016 0 0 0 0 0 0 0 0 1932 3652 3144 628 2032 5768 5956
1637046763933,20,10,3676 0 0 0 0 0 0 0 0 0 0 0 0 1608 4480 5212 2016 0 0 0 0 0 0 0 0 1936 3648 3144 620 2020 5760 5932
1637046763965,20,10,3712 0 0 0 0 0 0 0 0 0 0 0 0 1584 4456 5192 2016 0 0 0 0 0 0 0 0 1924 3648 3132 632 2028 5760 5936
1637046763996,20,10,3720 0 0 0 0 0 0 0 0 0 0 0 0 1592 4468 5216 2020 0 0 0 0 0 0 0 0 1916 3612 3148 624 2032 5768 5960
1637046764027,20,10,3692 0 0 0 0 0 0 0 0 0 0 0 0 1632 4480 5232 2004 0 0 0 0 0 0 0 0 1920 3656 3132 660 2056 5748 5940
1637046764058,20,10,3708 0 0 0 0 0 0 0 0 0 0 0 0 1596 4480 5196 2000 0 0 0 0 0 0 0 0 1912 3652 3168 636 2032 5756 5952
1637046764074,20,10,3708 0 0 0 0 0 0 0 0 0 0 0 0 1620 4472 5196 2016 0 0 0 0 0 0 0 0 1904 3632 3132 652 2040 5740 5964
1637046764105,20,10,3692 0 0 0 0 0 0 0 0 0 0 0 0 1584 4476 5204 2000 0 0 0 0 0 0 0 0 1924 3620 3136 624 2028 5764 5932
1637046764152,20,10,3724 0 0 0 0 0 0 0 0 0 0 0 0 1608 4476 5200 1996 0 0 0 0 0 0 0 0 1908 3632 3140 620 2016 5784 5936
1637046764183,20,10,3716 0 0 0 0 0 0 0 0 0 0 0 0 1604 4520 5196 1988 0 0 0 0 0 0 0 0 1912 3588 3136 636 2032 5764 5924
1637046764199,20,10,3696 0 0 0 0 0 0 0 0 0 0 0 0 1592 4480 5212 1992 0 0 0 0 0 0 0 0 1908 3640 3152 648 2024 5748 5932
1637046764231,20,10,3708 0 0 0 0 0 0 0 0 0 0 0 0 1608 4476 5180 2036 0 0 0 0 0 0 0 0 1912 3648 3128 656 2044 5772 5936
1637046764262,20,10,3696 0 0 0 0 0 0 0 0 0 0 0 0 1608 4480 5196 1996 0 0 0 0 0 0 0 0 1936 3644 3132 672 1984 5768 5948
1637046764293,20,10,3704 0 0 0 0 0 0 0 0 0 0 0 0 1564 4532 5208 2016 0 0 0 0 0 0 0 0 1932 3636 3156 632 2012 5776 5952
1637046764324,20,10,3736 0 0 0 0 0 0 0 0 0 0 0 0 1552 4480 5200 2024 0 0 0 0 0 0 0 0 1908 3636 3144 664 2032 5772 5944
1637046764355,20,10,3708 0 0 0 0 0 0 0 0 0 0 0 0 1608 4480 5216 2020 0 0 0 0 0 0 0 0 1952 3652 3148 660 2012 5792 5944
1637046764387,20,10,3716 0 0 0 0 0 0 0 0 0 0 0 0 1600 4464 5232 2032 0 0 0 0 0 0 0 0 1912 3640 3152 640 2036 5764 5960
1637046764433,20,10,3712 0 0 0 0 0 0 0 0 0 0 0 0 1596 4476 5228 2004 0 0 0 0 0 0 0 0 1936 3640 3148 640 2024 5792 5964
1637046764480,20,10,3728 0 0 0 0 0 0 0 0 0 0 0 0 1600 4476 5208 2012 0 0 0 0 0 0 0 0 1920 3680 3132 652 2004 5784 5932
1637046764511,20,10,3736 0 0 0 0 0 0 0 0 0 0 0 0 1592 4484 5220 2024 0 0 0 0 0 0 0 0 1952 3644 3180 688 2008 5792 5948
1637046764511,20,10,3708 0 0 0 0 0 0 0 0 0 0 0 0 1592 4472 5216 2004 0 0 0 0 0 0 0 0 1916 3652 3136 688 2024 5780 5936
1637046764559,20,10,3704 0 0 0 0 0 0 0 0 0 0 0 0 1604 4476 5216 2032 0 0 0 0 0 0 0 0 1908 3680 3160 664 2048 5796 5960
1637046764574,20,10,3704 0 0 0 0 0 0 0 0 0 0 0 0 1596 4476 5196 2012 0 0 0 0 0 0 0 0 1932 3656 3140 656 2004 5796 5956
1637046764605,20,10,3724 0 0 0 0 0 0 0 0 0 0 0 0 1584 4496 5224 2012 0 0 0 0 0 0 0 0 1936 3648 3132 636 2016 5788 5932
1637046764636,20,10,3728 0 0 0 0 0 0 0 0 0 0 0 0 1608 4476 5196 2040 0 0 0 0 0 0 0 0 1904 3644 3160 664 1980 5792 5944
1637046764683,20,10,3748 0 0 0 0 0 0 0 0 0 0 0 0 1596 4484 5196 2032 0 0 0 0 0 0 0 0 1908 3632 3144 672 2008 5760 5952
1637046764715,20,10,3720 0 0 0 0 0 0 0 0 0 0 0 0 1596 4484 5232 2016 0 0 0 0 0 0 0 0 1912 3652 3168 704 1992 5772 5952
1637046764746,20,10,3732 0 0 0 0 0 0 0 0 0 0 0 0 1600 4496 5212 2032 0 0 0 0 0 0 0 0 1932 3664 3152 664 1980 5800 5948
1637046764777,20,10,3724 0 0 0 0 0 0 0 0 0 0 0 0 1600 4508 5208 2016 0 0 0 0 0 0 0 0 1920 3636 3172 656 2024 5772 5952
1637046764808,20,10,3724 0 0 0 0 0 0 0 0 0 0 0 0 1612 4484 5216 2012 0 0 0 0 0 0 0 0 1904 3644 3132 632 2056 5752 5944
1637046764871,20,10,3740 0 0 0 0 0 0 0 0 0 0 0 0 1604 4488 5232 2040 0 0 0 0 0 0 0 0 1884 3632 3136 668 2024 5796 5984
1637046764871,20,10,3748 0 0 0 0 0 0 0 0 0 0 0 0 1560 4484 5212 2028 0 0 0 0 0 0 0 0 1920 3640 3128 688 2012 5768 5948
1637046764902,20,10,3736 0 0 0 0 0 0 0 0 0 0 0 0 1604 4504 5268 1996 0 0 0 0 0 0 0 0 1868 3648 3124 636 1984 5752 5964
1637046764918,20,10,3736 0 0 0 0 0 0 0 0 0 0 0 0 1596 4500 5216 2032 0 0 0 0 0 0 0 0 1840 3624 3136 648 2040 5784 5984
1637046764980,20,10,3736 0 0 0 0 0 0 0 0 0 0 0 0 1596 4492 5208 2056 0 0 0 0 0 0 0 0 1856 3628 3160 684 2016 5780 5968
1637046764996,20,10,3736 0 0 0 0 0 0 0 0 0 0 0 0 1596 4496 5232 2052 0 0 0 0 0 0 0 0 1864 3648 3132 640 2020 5780 5936
1637046765027,20,10,3740 0 0 0 0 0 0 0 0 0 0 0 0 1616 4500 5212 2032 0 0 0 0 0 0 0 0 1860 3648 3152 668 2036 5768 5968
1637046765058,20,10,3736 0 0 0 0 0 0 0 0 0 0 0 0 1604 4476 5216 2060 0 0 0 0 0 0 0 0 1844 3680 3172 664 2064 5772 5932
1637046765105,20,10,3712 0 0 0 0 0 0 0 0 0 0 0 0 1596 4492 5248 2028 0 0 0 0 0 0 0 0 1860 3664 3164 668 2032 5772 5960
1637046765121,20,10,3740 0 0 0 0 0 0 0 0 0 0 0 0 1620 4512 5208 2028 0 0 0 0 0 0 0 0 1848 3656 3148 668 2040 5808 5956
1637046765152,20,10,3756 0 0 0 0 0 0 0 0 0 0 0 0 1592 4496 5236 2032 0 0 0 0 0 0 0 0 1828 3628 3168 688 2020 5772 5948
1637046765183,20,10,3752 0 0 0 0 0 0 0 0 0 0 0 0 1616 4496 5224 2040 0 0 0 0 0 0 0 0 1864 3640 3132 664 2048 5756 5948
1637046765215,20,10,3740 0 0 0 0 0 0 0 0 0 0 0 0 1608 4484 5232 2048 0 0 0 0 0 0 0 0 1852 3656 3152 676 2016 5772 5940
1637046765261,20,10,3748 0 0 0 0 0 0 0 0 0 0 0 0 1596 4480 5224 2076 0 0 0 0 0 0 0 0 1856 3652 3168 704 1988 5796 5948
1637046765277,20,10,3740 0 0 0 0 0 0 0 0 0 0 0 0 1612 4512 5196 2040 0 0 0 0 0 0 0 0 1868 3708 3148 672 2040 5784 5960
1637046765309,20,10,3744 0 0 0 0 0 0 0 0 0 0 0 0 1596 4476 5212 2040 0 0 0 0 0 0 0 0 1856 3740 3160 668 2048 5784 5964
1637046765371,20,10,3768 0 0 0 0 0 0 0 0 0 0 0 0 1596 4504 5216 2012 0 0 0 0 0 0 0 0 1868 3700 3168 704 2044 5812 5932
1637046765371,20,10,3776 0 0 0 0 0 0 0 0 0 0 0 0 1628 4516 5264 2044 0 0 0 0 0 0 0 0 1868 3696 3172 668 2048 5788 5944
1637046765418,20,10,3724 0 0 0 0 0 0 0 0 0 0 0 0 1596 4496 5212 2012 0 0 0 0 0 0 0 0 1888 3692 3184 660 2024 5792 5948
1637046765433,20,10,3752 0 0 0 0 0 0 0 0 0 0 0 0 1632 4524 5240 2068 0 0 0 0 0 0 0 0 1856 3700 3180 700 2048 5792 5948
1637046765465,20,10,3748 0 0 0 0 0 0 0 0 0 0 0 0 1596 4528 5228 2068 0 0 0 0 0 0 0 0 1860 3708 3192 700 2032 5808 5960
1637046765512,20,10,3744 0 0 0 0 0 0 0 0 0 0 0 0 1612 4524 5220 2024 0 0 0 0 0 0 0 0 1880 3692 3160 680 2016 5816 5992
1637046765558,20,10,3752 0 0 0 0 0 0 0 0 0 0 0 0 1604 4508 5188 2060 0 0 0 0 0 0 0 0 1876 3712 3168 700 2060 5808 5976
1637046765574,20,10,3736 0 0 0 0 0 0 0 0 0 0 0 0 1608 4492 5252 2036 0 0 0 0 0 0 0 0 1868 3712 3172 672 2064 5788 5964
1637046765605,20,10,3764 0 0 0 0 0 0 0 0 0 0 0 0 1620 4520 5232 2040 0 0 0 0 0 0 0 0 1880 3708 3172 704 2044 5772 5976
1637046765652,20,10,3824 0 0 0 0 0 0 0 0 0 0 0 0 1596 4500 5240 2036 0 0 0 0 0 0 0 0 1892 3736 3168 704 2052 5788 5972
1637046765652,20,10,3748 0 0 0 0 0 0 0 0 0 0 0 0 1628 4516 5196 2056 0 0 0 0 0 0 0 0 1892 3708 3168 700 2036 5804 5948
1637046765699,20,10,3752 0 0 0 0 0 0 0 0 0 0 0 0 1616 4492 5224 2036 0 0 0 0 0 0 0 0 1892 3712 3140 708 2064 5772 5956
1637046765730,20,10,3748 0 0 0 0 0 0 0 0 0 0 0 0 1596 4504 5232 2028 0 0 0 0 0 0 0 0 1844 3724 3156 672 2036 5800 5964
1637046765746,20,10,3740 0 0 0 0 0 0 0 0 0 0 0 0 1620 4504 5212 2048 0 0 0 0 0 0 0 0 1888 3720 3168 696 2048 5792 5968
1637046765793,20,10,3768 0 0 0 0 0 0 0 0 0 0 0 0 1612 4500 5220 2032 0 0 0 0 0 0 0 0 1912 3728 3196 720 2044 5784 5964
1637046765824,20,10,3764 0 0 0 0 0 0 0 0 0 0 0 0 1620 4532 5200 2052 0 0 0 0 0 0 0 0 1920 3728 3148 684 2064 5808 5924
1637046765871,20,10,3748 0 0 0 0 0 0 0 0 0 0 0 0 1616 4532 5212 2020 0 0 0 0 0 0 0 0 1888 3736 3168 704 2056 5800 5960
1637046765887,20,10,3776 0 0 0 0 0 0 0 0 0 0 0 0 1636 4508 5220 2064 0 0 0 0 0 0 0 0 1904 3736 3164 676 2052 5772 5964
1637046765918,20,10,3768 0 0 0 0 0 0 0 0 0 0 0 0 1600 4524 5232 2052 0 0 0 0 0 0 0 0 1904 3712 3148 668 2092 5780 5984
1637046766011,20,10,3748 0 0 0 0 0 0 0 0 0 0 0 0 1604 4492 5216 2036 0 0 0 0 0 0 0 0 1920 3736 3200 704 2080 5764 5948
1637046766011,20,10,3768 0 0 0 0 0 0 0 0 0 0 0 0 1612 4508 5220 2056 0 0 0 0 0 0 0 0 1872 3736 3168 712 2048 5792 5984
1637046766027,20,10,3768 0 0 0 0 0 0 0 0 0 0 0 0 1604 4508 5212 2040 0 0 0 0 0 0 0 0 1928 3736 3160 700 2060 5788 5964
1637046766027,20,10,3760 0 0 0 0 0 0 0 0 0 0 0 0 1596 4504 5212 2056 0 0 0 0 0 0 0 0 1904 3728 3164 700 2056 5772 5976
1637046766137,20,10,3748 0 0 0 0 0 0 0 0 0 0 0 0 1632 4528 5208 2048 0 0 0 0 0 0 0 0 1904 3704 3144 676 2072 5792 5944
1637046766137,20,10,3744 0 0 0 0 0 0 0 0 0 0 0 0 1592 4512 5216 2052 0 0 0 0 0 0 0 0 1920 3744 3152 684 2080 5804 5956
1637046766168,20,10,3752 0 0 0 0 0 0 0 0 0 0 0 0 1596 4492 5188 2040 0 0 0 0 0 0 0 0 1880 3756 3148 676 2056 5792 5968
1637046766168,20,10,3764 0 0 0 0 0 0 0 0 0 0 0 0 1584 4524 5204 2020 0 0 0 0 0 0 0 0 1920 3720 3124 684 2092 5780 5940
1637046766230,20,10,3740 0 0 0 0 0 0 0 0 0 0 0 0 1568 4472 5180 2020 0 0 0 0 0 0 0 0 1916 3740 3096 696 2068 5788 5960
1637046766230,20,10,3736 0 0 0 0 0 0 0 0 0 0 0 0 1560 4484 5216 2040 0 0 0 0 0 0 0 0 1908 3736 3152 672 2040 5776 5964
1637046766262,20,10,3728 0 0 0 0 0 0 0 0 0 0 0 0 1556 4480 5160 2028 0 0 0 0 0 0 0 0 1920 3732 3144 668 2024 5808 5976
1637046766324,20,10,3684 0 0 0 0 0 0 0 0 0 0 0 0 1468 4444 5164 2012 0 0 0 0 0 0 0 0 1892 3760 3132 696 2016 5804 5960
1637046766324,20,10,3680 0 0 0 0 0 0 0 0 0 0 0 0 1448 4400 5068 2036 0 0 0 0 0 0 0 0 1900 3704 3136 680 2000 5780 5944
1637046766402,20,10,3692 0 0 0 0 0 0 0 0 0 0 0 0 1376 4336 5004 2000 0 0 0 0 0 0 0 0 1880 3612 3136 700 2004 5752 5936
1637046766402,20,10,3716 0 0 0 0 0 0 0 0 0 0 0 0 1384 4336 4896 2024 0 0 0 0 0 0 0 0 1896 3616 3120 680 1996 5748 5932
1637046766433,20,10,3680 0 0 0 0 0 0 0 0 0 0 0 0 1428 4372 4896 2008 0 0 0 0 0 0 0 0 1888 3628 3120 704 1964 5716 5944
1637046766449,20,10,3676 0 0 0 0 0 0 0 0 0 0 0 0 1440 4364 4988 2024 0 0 0 0 0 0 0 0 1912 3692 3144 732 1984 5692 5936
1637046766496,20,10,3680 0 0 0 0 0 0 0 0 0 0 0 0 1456 4392 4996 2000 0 0 0 0 0 0 0 0 1884 3732 3132 716 1988 5724 5916
1637046766543,20,10,3676 0 0 0 0 0 0 0 0 0 0 0 0 1424 4428 5020 2048 0 0 0 0 0 0 0 0 1932 3724 3160 720 1988 5712 5916
1637046766543,20,10,3672 0 0 0 0 0 0 0 0 0 0 0 0 1428 4440 5044 1992 0 0 0 0 0 0 0 0 1912 3744 3136 684 1968 5760 5944
1637046766574,20,10,3612 0 0 0 0 0 0 0 0 0 0 0 0 1400 4436 5044 1952 0 0 0 0 0 0 0 0 1932 3752 3152 700 1964 5696 5924
1637046766621,20,10,3628 0 0 0 0 0 0 0 0 0 0 0 0 1420 4432 5048 1948 0 0 0 0 0 0 0 0 1940 3756 3148 704 1976 5692 5916
1637046766668,20,10,3616 0 0 0 0 0 0 0 0 0 0 0 0 1408 4480 5020 1992 0 0 0 0 0 0 0 0 1868 3760 3148 672 2000 5700 5908
1637046766684,20,10,3600 0 0 0 0 0 0 0 0 0 0 0 0 1380 4440 5072 1952 0 0 0 0 0 0 0 0 1884 3728 3168 704 2012 5720 5908
1637046766761,20,10,3640 0 0 0 0 0 0 0 0 0 0 0 0 1408 4456 5060 1960 0 0 0 0 0 0 0 0 1828 3688 3140 708 2000 5708 5916
1637046766761,20,10,3644 0 0 0 0 0 0 0 0 0 0 0 0 1412 4460 5076 1944 0 0 0 0 0 0 0 0 1816 3656 3160 656 1976 5712 5920
1637046766761,20,10,3660 0 0 0 0 0 0 0 0 0 0 0 0 1436 4448 5060 1952 0 0 0 0 0 0 0 0 1824 3644 3144 700 1908 5736 5936
1637046766793,20,10,3688 0 0 0 0 0 0 0 0 0 0 0 0 1436 4464 5056 1936 0 0 0 0 0 0 0 0 1824 3644 3152 688 1908 5768 5944
1637046766840,20,10,3700 0 0 0 0 0 0 0 0 0 0 0 0 1472 4440 5092 1944 0 0 0 0 0 0 0 0 1836 3688 3148 692 1856 5744 5944
1637046766855,20,10,3720 0 0 0 0 0 0 0 0 0 0 0 0 1488 4452 5116 1916 0 0 0 0 0 0 0 0 1832 3704 3168 712 1944 5740 5936
1637046766902,20,10,3732 0 0 0 0 0 0 0 0 0 0 0 0 1520 4472 5136 1960 0 0 0 0 0 0 0 0 1864 3760 3164 728 1928 5728 5900
1637046766933,20,10,3744 0 0 0 0 0 0 0 0 0 0 0 0 1500 4476 5124 1964 0 0 0 0 0 0 0 0 1848 3692 3176 716 1956 5716 5936
1637046766996,20,10,3704 0 0 0 0 0 0 0 0 0 0 0 0 1532 4480 5084 1980 0 0 0 0 0 0 0 0 1868 3692 3144 728 1932 5688 5924
1637046766996,20,10,3720 0 0 0 0 0 0 0 0 0 0 0 0 1488 4484 5084 1972 0 0 0 0 0 0 0 0 1872 3732 3172 732 1968 5692 5908
1637046767027,20,10,3708 0 0 0 0 0 0 0 0 0 0 0 0 1504 4468 5108 1996 0 0 0 0 0 0 0 0 1852 3804 3168 716 1984 5744 5912
1637046767075,20,10,3728 0 0 0 0 0 0 0 0 0 0 0 0 1528 4464 5124 2000 0 0 0 0 0 0 0 0 1872 3780 3148 716 2000 5744 5924
1637046767121,20,10,3728 0 0 0 0 0 0 0 0 0 0 0 0 1528 4476 5148 2000 0 0 0 0 0 0 0 0 1856 3768 3132 708 1992 5740 5916
1637046767121,20,10,3724 0 0 0 0 0 0 0 0 0 0 0 0 1536 4480 5116 1968 0 0 0 0 0 0 0 0 1856 3824 3168 732 2008 5760 5948
1637046767137,20,10,3720 0 0 0 0 0 0 0 0 0 0 0 0 1520 4476 5132 1964 0 0 0 0 0 0 0 0 1864 3788 3088 728 1980 5776 5916
1637046767217,20,10,3732 0 0 0 0 0 0 0 0 0 0 0 0 1496 4464 5120 1980 0 0 0 0 0 0 0 0 1856 3816 3148 720 2016 5748 5920
1637046767217,20,10,3708 0 0 0 0 0 0 0 0 0 0 0 0 1508 4480 5132 1976 0 0 0 0 0 0 0 0 1852 3808 3152 720 2044 5748 5944
1637046767248,20,10,3728 0 0 0 0 0 0 0 0 0 0 0 0 1492 4480 5144 1984 0 0 0 0 0 0 0 0 1856 3800 3160 716 2016 5788 5952
1637046767279,20,10,3716 0 0 0 0 0 0 0 0 0 0 0 0 1536 4476 5148 1984 0 0 0 0 0 0 0 0 1872 3812 3164 692 1980 5748 5948
1637046767310,20,10,3724 0 0 0 0 0 0 0 0 0 0 0 0 1516 4484 5144 1948 0 0 0 0 0 0 0 0 1852 3824 3148 728 1984 5748 5948
1637046767393,20,10,3712 0 0 0 0 0 0 0 0 0 0 0 0 1504 4492 5168 1984 0 0 0 0 0 0 0 0 1880 3824 3164 712 1976 5764 5940
1637046767409,20,10,3756 0 0 0 0 0 0 0 0 0 0 0 0 1492 4508 5156 1976 0 0 0 0 0 0 0 0 1820 3824 3168 688 1992 5768 5916
1637046767409,20,10,3716 0 0 0 0 0 0 0 0 0 0 0 0 1520 4488 5132 1964 0 0 0 0 0 0 0 0 1856 3812 3132 688 1996 5764 5936
1637046767456,20,10,3748 0 0 0 0 0 0 0 0 0 0 0 0 1512 4496 5132 1948 0 0 0 0 0 0 0 0 1856 3824 3152 636 1996 5752 5980
1637046767487,20,10,3728 0 0 0 0 0 0 0 0 0 0 0 0 1536 4476 5132 1980 0 0 0 0 0 0 0 0 1864 3824 3148 668 1996 5740 5964
1637046767503,20,10,3756 0 0 0 0 0 0 0 0 0 0 0 0 1540 4520 5140 1980 0 0 0 0 0 0 0 0 1868 3840 3152 688 1980 5760 5944
1637046767534,20,10,3744 0 0 0 0 0 0 0 0 0 0 0 0 1572 4476 5128 1964 0 0 0 0 0 0 0 0 1896 3800 3172 704 2000 5768 5964
1637046767565,20,10,3732 0 0 0 0 0 0 0 0 0 0 0 0 1548 4504 5092 2000 0 0 0 0 0 0 0 0 1900 3812 3160 716 1988 5740 5952
1637046767597,20,10,3764 0 0 0 0 0 0 0 0 0 0 0 0 1548 4472 5060 1984 0 0 0 0 0 0 0 0 1896 3852 3140 696 1956 5732 5940
1637046767659,20,10,3764 0 0 0 0 0 0 0 0 0 0 0 0 1504 4496 5056 1972 0 0 0 0 0 0 0 0 1904 3836 3168 640 1980 5720 5940
1637046767690,20,10,3756 0 0 0 0 0 0 0 0 0 0 0 0 1504 4448 5048 2000 0 0 0 0 0 0 0 0 1892 3816 3152 668 1984 5732 5936
1637046767690,20,10,3748 0 0 0 0 0 0 0 0 0 0 0 0 1520 4488 5124 1984 0 0 0 0 0 0 0 0 1888 3828 3172 696 1992 5756 5964
1637046767753,20,10,3740 0 0 0 0 0 0 0 0 0 0 0 0 1516 4464 5072 1988 0 0 0 0 0 0 0 0 1892 3856 3168 676 1980 5756 5932
1637046767784,20,10,3756 0 0 0 0 0 0 0 0 0 0 0 0 1500 4452 5068 1996 0 0 0 0 0 0 0 0 1896 3780 3152 712 1952 5728 5928
1637046767784,20,10,3732 0 0 0 0 0 0 0 0 0 0 0 0 1468 4432 5000 1968 0 0 0 0 0 0 0 0 1904 3676 3144 704 1940 5728 5952
1637046767831,20,10,3720 0 0 0 0 0 0 0 0 0 0 0 0 1428 4384 4884 1984 0 0 0 0 0 0 0 0 1868 3664 3116 720 2008 5728 5916
1637046767893,20,10,3728 0 0 0 0 0 0 0 0 0 0 0 0 1420 4360 4880 1968 0 0 0 0 0 0 0 0 1872 3612 3144 688 1924 5704 5928
1637046767893,20,10,3692 0 0 0 0 0 0 0 0 0 0 0 0 1452 4412 4928 1940 0 0 0 0 0 0 0 0 1904 3652 3120 668 1912 5700 5912
1637046767956,20,10,3708 0 0 0 0 0 0 0 0 0 0 0 0 1512 4436 4912 1984 0 0 0 0 0 0 0 0 1880 3652 3124 720 1892 5668 5904
1637046767972,20,10,3724 0 0 0 0 0 0 0 0 0 0 0 0 1524 4460 4996 1964 0 0 0 0 0 0 0 0 1896 3660 3084 700 1876 5660 5904
1637046767972,20,10,3688 0 0 0 0 0 0 0 0 0 0 0 0 1484 4464 5008 1992 0 0 0 0 0 0 0 0 1896 3736 3084 664 1872 5660 5888
1637046768018,20,10,3636 0 0 0 0 0 0 0 0 0 0 0 0 1372 4488 5040 1964 0 0 0 0 0 0 0 0 1888 3760 3012 672 1844 5608 5852
1637046768065,20,10,3576 0 0 0 0 0 0 0 0 0 0 0 0 1332 4456 5080 1928 0 0 0 0 0 0 0 0 1884 3736 3008 636 1824 5628 5836
1637046768112,20,10,3584 0 0 0 0 0 0 0 0 0 0 0 0 1332 4464 5088 1944 0 0 0 0 0 0 0 0 1864 3772 2956 636 1852 5604 5804
1637046768128,20,10,3568 0 0 0 0 0 0 0 0 0 0 0 0 1360 4512 5132 1896 0 0 0 0 0 0 0 0 1856 3808 2960 628 1852 5628 5808
1637046768128,20,10,3588 0 0 0 0 0 0 0 0 0 0 0 0 1372 4500 5136 1956 0 0 0 0 0 0 0 0 1824 3812 2964 652 1904 5652 5836
1637046768159,20,10,3576 0 0 0 0 0 0 0 0 0 0 0 0 1412 4488 5132 1972 0 0 0 0 0 0 0 0 1856 3804 2988 668 1912 5664 5852
1637046768206,20,10,3632 0 0 0 0 0 0 0 0 0 0 0 0 1436 4496 5128 1960 0 0 0 0 0 0 0 0 1820 3848 3004 672 1936 5680 5852
1637046768222,20,10,3632 0 0 0 0 0 0 0 0 0 0 0 0 1476 4512 5104 1944 0 0 0 0 0 0 0 0 1796 3840 3016 688 1952 5668 5856
1637046768284,20,10,3612 0 0 0 0 0 0 0 0 0 0 0 0 1460 4512 5072 1968 0 0 0 0 0 0 0 0 1832 3844 3012 680 1932 5696 5848
1637046768300,20,10,3640 0 0 0 0 0 0 0 0 0 0 0 0 1472 4504 5088 1972 0 0 0 0 0 0 0 0 1812 3852 3020 672 1964 5696 5856
1637046768362,20,10,3644 0 0 0 0 0 0 0 0 0 0 0 0 1460 4492 5084 2000 0 0 0 0 0 0 0 0 1816 3844 3036 696 1936 5676 5836
1637046768362,20,10,3656 0 0 0 0 0 0 0 0 0 0 0 0 1488 4536 5108 1988 0 0 0 0 0 0 0 0 1856 3856 3012 704 1952 5676 5832
1637046768393,20,10,3688 0 0 0 0 0 0 0 0 0 0 0 0 1472 4560 5096 1972 0 0 0 0 0 0 0 0 1804 3860 3020 688 1940 5688 5864
1637046768425,20,10,3652 0 0 0 0 0 0 0 0 0 0 0 0 1484 4496 5116 1996 0 0 0 0 0 0 0 0 1816 3844 3020 692 1964 5696 5868
1637046768471,20,10,3620 0 0 0 0 0 0 0 0 0 0 0 0 1468 4528 5104 1952 0 0 0 0 0 0 0 0 1760 3836 2976 672 1944 5692 5904
1637046768487,20,10,3672 0 0 0 0 0 0 0 0 0 0 0 0 1428 4540 5148 1948 0 0 0 0 0 0 0 0 1792 3848 3008 692 1948 5732 5888
1637046768503,20,10,3684 0 0 0 0 0 0 0 0 0 0 0 0 1432 4508 5128 1972 0 0 0 0 0 0 0 0 1788 3844 2964 672 1940 5676 5860
1637046768566,20,10,3680 0 0 0 0 0 0 0 0 0 0 0 0 1436 4532 5124 1976 0 0 0 0 0 0 0 0 1792 3852 2988 692 1944 5692 5852
1637046768581,20,10,3660 0 0 0 0 0 0 0 0 0 0 0 0 1444 4524 5116 1992 0 0 0 0 0 0 0 0 1796 3864 3028 700 1952 5700 5860
1637046768628,20,10,3692 0 0 0 0 0 0 0 0 0 0 0 0 1492 4544 5132 2008 0 0 0 0 0 0 0 0 1808 3872 3036 704 1964 5712 5884
1637046768644,20,10,3664 0 0 0 0 0 0 0 0 0 0 0 0 1476 4544 5172 2008 0 0 0 0 0 0 0 0 1820 3828 3004 704 1944 5680 5856
1637046768675,20,10,3684 0 0 0 0 0 0 0 0 0 0 0 0 1476 4540 5152 2000 0 0 0 0 0 0 0 0 1812 3852 3040 680 1952 5708 5852
1637046768706,20,10,3688 0 0 0 0 0 0 0 0 0 0 0 0 1468 4552 5168 1996 0 0 0 0 0 0 0 0 1828 3864 3032 700 1944 5692 5864
1637046768737,20,10,3628 0 0 0 0 0 0 0 0 0 0 0 0 1488 4504 5156 1924 0 0 0 0 0 0 0 0 1816 3840 3028 704 1948 5688 5856
1637046768769,20,10,3688 0 0 0 0 0 0 0 0 0 0 0 0 1496 4536 5136 1996 0 0 0 0 0 0 0 0 1856 3840 3032 668 1904 5676 5840
1637046768815,20,10,3700 0 0 0 0 0 0 0 0 0 0 0 0 1472 4540 5096 2012 0 0 0 0 0 0 0 0 1848 3696 2992 712 1824 5644 5840
1637046768847,20,10,3664 0 0 0 0 0 0 0 0 0 0 0 0 1508 4520 5072 1972 0 0 0 0 0 0 0 0 1788 3624 3008 652 1772 5496 5744
1637046768862,20,10,3656 0 0 0 0 0 0 0 0 0 0 0 0 1420 4460 4924 1916 0 0 0 0 0 0 0 0 1808 3424 2924 692 1712 5444 5676
1637046768894,20,10,3604 0 0 0 0 0 0 0 0 0 0 0 0 1344 4420 4856 1848 0 0 0 0 0 0 0 0 1736 3240 2892 600 1684 5420 5640
1637046768940,20,10,3496 0 0 0 0 0 0 0 0 0 0 0 0 1276 4380 4804 1876 0 0 0 0 0 0 0 0 1716 3256 2892 588 1744 5456 5628
1637046768956,20,10,3444 0 0 0 0 0 0 0 0 0 0 0 0 1340 4344 4868 1912 0 0 0 0 0 0 0 0 1788 3360 2928 620 1788 5492 5640
1637046768987,20,10,3452 0 0 0 0 0 0 0 0 0 0 0 0 1348 4420 4908 1952 0 0 0 0 0 0 0 0 1800 3424 2932 624 1784 5524 5648
1637046769050,20,10,3400 0 0 0 0 0 0 0 0 0 0 0 0 1404 4428 5012 1936 0 0 0 0 0 0 0 0 1756 3516 2948 620 1824 5596 5652
1637046769050,20,10,3348 0 0 0 0 0 0 0 0 0 0 0 0 1408 4468 5080 1872 0 0 0 0 0 0 0 0 1692 3452 2940 576 1716 5628 5664
1637046769081,20,10,3276 0 0 0 0 0 0 0 0 0 0 0 0 1344 4480 5168 1908 0 0 0 0 0 0 0 0 1632 3592 2992 524 1728 5668 5716
1637046769144,20,10,3320 0 0 0 0 0 0 0 0 0 0 0 0 1300 4472 5212 1844 0 0 0 0 0 0 0 0 1632 3548 2976 528 1792 5660 5720
1637046769175,20,10,3260 0 0 0 0 0 0 0 0 0 0 0 0 1264 4444 5384 1844 0 0 0 0 0 0 0 0 1692 3632 2928 492 1832 5624 5728
1637046769190,20,10,3204 0 0 0 0 0 0 0 0 0 0 0 0 1328 4476 5428 1840 0 0 0 0 0 0 0 0 1740 3744 2904 508 1856 5656 5712
1637046769237,20,10,3204 0 0 0 0 0 0 0 0 0 0 0 0 1308 4528 5580 1892 0 0 0 0 0 0 0 0 1820 3904 2988 568 1920 5712 5652
1637046769237,20,10,3180 0 0 0 0 0 0 0 0 0 0 0 0 1376 4528 5616 1916 0 0 0 0 0 0 0 0 1836 3968 2912 508 2000 5716 5636
1637046769284,20,10,3128 0 0 0 0 0 0 0 0 0 0 0 0 1400 4524 5688 1900 0 0 0 0 0 0 0 0 1844 3932 2940 556 2008 5720 5600
1637046769331,20,10,3100 0 0 0 0 0 0 0 0 0 0 0 0 1400 4540 5792 1912 0 0 0 0 0 0 0 0 1900 4072 2928 516 2052 5760 5560
1637046769331,20,10,3008 0 0 0 0 0 0 0 0 0 0 0 0 1392 4592 5856 1936 0 0 0 0 0 0 0 0 1960 4128 2900 504 2044 5748 5448
1637046769387,20,10,2956 0 0 0 0 0 0 0 0 0 0 0 0 1360 4552 5904 1924 0 0 0 0 0 0 0 0 1944 4168 2896 488 2080 5768 5420
1637046769428,20,10,2880 0 0 0 0 0 0 0 0 0 0 0 0 1412 4596 5944 1872 0 0 0 0 0 0 0 0 1984 4152 2840 456 2052 5752 5360
1637046769444,20,10,2804 0 0 0 0 0 0 0 0 0 0 0 0 1444 4596 5988 1884 0 0 0 0 0 0 0 0 1984 4132 2816 480 2080 5784 5328
1637046769475,20,10,2764 0 0 0 0 0 0 0 0 0 0 0 0 1420 4612 6068 2024 0 0 0 0 0 0 0 0 1984 4136 2816 464 2108 5824 5360
1637046769506,20,10,2756 0 0 0 0 0 0 0 0 0 0 0 0 1416 4636 6108 2044 0 0 0 0 0 0 0 0 1996 4196 2780 472 2108 5792 5296
1637046769522,20,10,2688 0 0 0 0 0 0 0 0 0 0 0 0 1440 4712 6164 2052 0 0 0 0 0 0 0 0 1996 4224 2828 484 2076 5792 5240
1637046769553,20,10,2632 0 0 0 0 0 0 0 0 0 0 0 0 1444 4748 6224 2124 0 0 0 0 0 0 0 0 2056 4332 2812 480 2140 5812 5256
1637046769600,20,10,2588 0 0 0 0 0 0 0 0 0 0 0 0 1448 4824 6364 2108 0 0 0 0 0 0 0 0 2164 4356 2840 460 2180 5804 5264
1637046769631,20,10,2528 0 0 0 0 0 0 0 0 0 0 0 0 1528 4840 6396 2092 0 0 0 0 0 0 0 0 2112 4348 2828 464 2212 5808 5276
1637046769694,20,10,2528 0 0 0 0 0 0 0 0 0 0 0 0 1480 4912 6496 2220 0 0 0 0 0 0 0 0 2216 4444 2832 448 2160 5832 5280
1637046769694,20,10,2536 0 0 0 0 0 0 0 0 0 0 0 0 1536 4900 6524 2240 0 0 0 0 0 0 0 0 2276 4532 2836 480 2252 5888 5308
1637046769756,20,10,2564 0 0 0 0 0 0 0 0 0 0 0 0 1500 4876 6532 2308 0 0 0 0 0 0 0 0 2292 4480 2848 444 2288 5948 5296
1637046769756,20,10,2508 0 0 0 0 0 0 0 0 0 0 0 0 1560 4960 6568 2312 0 0 0 0 0 0 0 0 2368 4548 2860 444 2336 5924 5264
1637046769788,20,10,2556 0 0 0 0 0 0 0 0 0 0 0 0 1632 4992 6616 2372 0 0 0 0 0 0 0 0 2432 4560 2944 484 2416 5936 5252
1637046769819,20,10,2500 0 0 0 0 0 0 0 0 0 0 0 0 1624 5020 6592 2380 0 0 0 0 0 0 0 0 2476 4520 2924 504 2424 5952 5348
1637046769866,20,10,2408 0 0 0 0 0 0 0 0 0 0 0 0 1648 5020 6580 2372 0 0 0 0 0 0 0 0 2468 4552 2924 496 2368 5912 5324
1637046769866,20,10,2420 0 0 0 0 0 0 0 0 0 0 0 0 1660 5052 6540 2408 0 0 0 0 0 0 0 0 2524 4512 2912 504 2416 5912 5304
1637046769897,20,10,2348 0 0 0 0 0 0 0 0 0 0 0 0 1648 5060 6532 2412 0 0 0 0 0 0 0 0 2512 4516 2928 468 2396 5952 5280
1637046769972,20,10,2352 0 0 0 0 0 0 0 0 0 0 0 0 1668 5052 6496 2460 0 0 0 0 0 0 0 0 2548 4544 2944 500 2424 5940 5248
1637046770039,20,10,2364 0 0 0 0 0 0 0 0 0 0 0 0 1704 5104 6412 2436 0 0 0 0 0 0 0 0 2568 4560 2948 528 2484 5896 5216
1637046770039,20,10,2364 0 0 0 0 0 0 0 0 0 0 0 0 1732 5088 6400 2484 0 0 0 0 0 0 0 0 2704 4536 2956 540 2456 5916 5156
1637046770039,20,10,2336 0 0 0 0 0 0 0 0 0 0 0 0 1768 5092 6336 2532 0 0 0 0 0 0 0 0 2724 4556 2980 540 2440 5856 5176
1637046770102,20,10,2252 0 0 0 0 0 0 0 0 0 0 0 0 1812 5184 6308 2476 0 0 0 0 0 0 0 0 2788 4568 2956 524 2440 5896 5120
1637046770102,20,10,2236 0 0 0 0 0 0 0 0 0 64 0 0 1856 5200 6304 2536 0 0 0 0 0 0 0 0 2812 4600 2992 524 2496 5888 5112
1637046770148,20,10,2220 0 0 0 0 0 0 0 0 0 92 0 0 1848 5224 6256 2552 0 0 0 0 0 0 0 0 2868 4500 2976 600 2512 5772 5068
1637046770180,20,10,2224 0 0 0 0 0 0 0 0 0 64 0 0 1896 5204 6204 2624 0 0 0 0 0 0 0 0 2928 4512 3004 576 2460 5708 5064
1637046770195,20,10,2188 0 0 0 0 0 0 0 0 0 96 0 0 1916 5284 6184 2564 0 0 0 0 0 0 0 0 2952 4508 3020 600 2436 5624 4960
1637046770242,20,10,2196 0 0 0 0 0 0 0 0 0 92 0 0 1884 5276 6048 2532 0 0 0 0 0 0 0 0 2928 4416 2976 612 2268 5412 4824
1637046770258,20,10,2180 0 0 0 0 0 0 0 0 0 128 0 0 1868 5272 5924 2460 0 0 0 0 0 0 0 0 2916 4320 2872 612 2196 5304 4668
1637046770305,20,10,2148 0 0 0 0 0 0 0 0 0 112 0 0 1852 5240 5792 2428 0 0 0 0 0 0 0 0 2940 4236 2844 596 2076 5132 4704
1637046770352,20,10,2204 0 0 0 0 0 272 0 0 0 92 0 0 1840 5264 5536 2396 0 0 0 176 0 0 0 68 2940 4160 2804 544 2024 4940 4568
1637046770352,20,10,2176 0 0 0 0 0 332 0 0 0 76 0 0 1756 5164 5344 2388 0 0 144 336 0 0 0 196 2956 4120 2816 504 1884 4748 4504
1637046770461,20,10,2144 0 0 0 0 0 560 0 0 0 112 0 0 1744 5256 5184 2332 0 0 184 444 0 0 0 216 2920 4072 2772 496 1848 4648 4440
1637046770461,20,10,2156 0 0 0 0 0 780 0 0 0 80 0 0 1692 5152 5028 2320 0 0 188 476 0 0 128 348 2856 3964 2656 448 1776 4492 4308
1637046770461,20,10,2112 0 0 0 0 0 924 0 0 0 60 0 0 1676 5132 4896 2272 0 0 220 520 0 0 248 376 2804 3868 2636 444 1712 4428 4228
1637046770477,20,10,2128 0 0 0 0 0 1140 0 0 0 96 0 0 1636 5144 4808 2320 0 0 244 564 0 0 260 392 2816 3820 2576 508 1636 4268 4192
1637046770524,20,10,2076 0 0 0 0 0 1308 0 0 0 92 0 0 1696 5164 4744 2232 0 0 252 568 0 0 308 396 2740 3808 2592 416 1632 4156 4064
1637046770571,20,10,2076 0 0 0 0 0 1416 0 0 0 128 0 0 1728 5172 4656 2272 0 0 256 572 0 0 348 480 2800 3840 2548 500 1604 4224 4048
1637046770586,20,10,2060 0 0 0 0 0 1504 0 0 0 160 0 0 1732 5168 4704 2224 0 0 240 560 0 0 376 444 2792 3864 2576 468 1560 4204 4096
1637046770649,20,10,2000 0 0 0 0 216 1624 0 0 0 160 0 0 1760 5156 4608 2212 0 0 240 568 0 0 416 380 2816 3936 2616 500 1528 4184 4064
1637046770649,20,10,2056 0 0 0 0 264 1660 0 0 0 180 0 0 1728 5152 4568 2244 0 0 240 536 0 0 412 432 2868 3952 2676 516 1540 4188 4092
1637046770696,20,10,2052 0 0 0 0 364 1716 0 0 0 144 0 0 1784 5172 4616 2248 0 0 192 500 0 0 444 384 2844 3996 2688 532 1548 4200 4080
1637046770696,20,10,2016 0 0 0 0 384 1700 80 0 0 176 0 0 1792 5184 4656 2296 0 0 192 484 0 0 456 368 2860 3992 2708 588 1536 4164 4060
1637046770743,20,10,2044 0 0 0 0 376 1660 60 0 0 192 0 0 1792 5164 4688 2308 0 0 156 396 0 0 464 376 2880 4020 2716 548 1584 4164 4092
1637046770758,20,10,2076 0 0 0 0 368 1692 72 0 0 196 0 0 1748 5208 4680 2304 0 0 124 316 0 0 484 356 2892 4024 2772 528 1532 4204 4124
1637046770805,20,10,2060 0 0 0 0 352 1624 104 0 0 176 0 0 1776 5200 4704 2308 0 0 132 280 0 0 468 324 2928 4064 2748 560 1528 4196 4040
1637046770852,20,10,2024 0 0 0 0 308 1720 92 0 0 184 0 0 1800 5208 4716 2308 0 0 116 236 0 0 472 316 2896 4044 2756 552 1548 4216 4096
1637046770899,20,10,2096 0 0 0 0 264 1724 96 0 0 192 0 0 1812 5224 4788 2312 0 0 140 232 0 0 476 316 2908 4040 2752 556 1584 4208 4128
1637046770899,20,10,2108 0 0 0 0 236 1764 112 0 0 172 0 0 1788 5216 4752 2328 0 0 108 204 0 0 512 324 2936 4052 2768 576 1584 4192 4124
1637046770930,20,10,2084 0 0 0 0 148 1696 60 0 0 184 0 0 1800 5216 4772 2312 0 0 108 176 0 0 496 316 2944 4036 2748 568 1604 4220 4168
1637046770977,20,10,2108 0 0 0 0 172 1728 96 0 0 180 0 0 1824 5228 4772 2324 0 0 112 204 0 0 476 416 2952 4076 2744 564 1616 4236 4144
1637046770992,20,10,2128 0 0 0 0 168 1732 112 0 0 192 0 0 1816 5216 4780 2356 0 0 140 180 0 0 512 384 2936 4064 2684 556 1620 4228 4140
1637046771008,20,10,2044 0 0 0 0 180 1720 132 0 0 160 0 0 1792 5208 4788 2300 0 0 128 224 0 0 480 396 2916 4096 2736 540 1600 4208 4148
1637046771055,20,10,2068 0 0 0 0 140 1744 128 0 0 152 0 0 1776 5232 4780 2356 0 0 112 220 0 0 452 380 2940 4068 2700 604 1604 4224 4156
1637046771102,20,10,2052 0 0 0 0 156 1724 144 0 0 184 0 0 1808 5212 4840 2372 0 0 128 276 0 0 452 364 2964 4084 2740 572 1612 4220 4140
1637046771133,20,10,2064 0 0 0 0 148 1744 124 0 0 192 0 0 1800 5260 4880 2364 0 0 108 256 0 0 428 320 2960 4044 2740 568 1624 4224 4144
1637046771149,20,10,2064 0 0 0 0 156 1748 108 0 0 172 0 0 1772 5264 4804 2352 0 0 76 224 0 0 440 340 2952 4064 2704 544 1616 4224 4140
1637046771180,20,10,2064 0 0 0 0 124 1728 104 0 0 168 0 0 1836 5256 4840 2360 0 0 92 240 0 0 436 384 2972 4084 2716 572 1632 4220 4160
1637046771243,20,10,2044 0 0 0 0 112 1716 92 0 0 204 0 0 1856 5272 4828 2384 0 0 92 224 0 0 528 384 2976 4088 2720 608 1644 4236 4124
1637046771243,20,10,2028 0 0 0 0 116 1784 108 0 0 168 0 0 1832 5256 4812 2352 0 0 116 212 0 0 452 436 2992 4100 2760 588 1672 4216 4184
1637046771274,20,10,2044 0 0 0 0 124 1720 152 0 0 200 0 0 1832 5268 4816 2388 0 0 144 236 0 0 464 400 3000 4108 2784 572 1668 4216 4164
1637046771321,20,10,2072 0 0 0 0 128 1776 144 0 0 192 0 0 1856 5272 4812 2380 0 0 136 252 0 0 444 436 2976 4116 2744 604 1688 4272 4184
1637046771368,20,10,2060 0 0 0 0 128 1792 148 0 0 188 0 0 1860 5256 4856 2360 0 0 132 264 0 0 448 480 3012 4132 2744 596 1628 4220 4212
1637046771383,20,10,2092 0 0 0 0 136 1772 156 0 0 164 0 0 1888 5244 4832 2372 0 0 140 288 0 0 476 480 2988 4140 2768 604 1692 4240 4240
1637046771399,20,10,2120 0 0 0 0 112 1740 132 0 0 196 0 0 1856 5256 4852 2380 0 0 152 276 0 0 472 484 3040 4172 2768 628 1704 4252 4216
1637046771492,20,10,2104 0 0 0 0 112 1732 176 0 0 160 0 0 1920 5276 4852 2400 0 0 152 268 0 0 428 392 3016 4156 2812 648 1732 4288 4244
1637046771492,20,10,2144 0 0 0 0 104 1732 140 0 0 180 0 0 1928 5264 4840 2404 0 0 132 344 0 0 432 388 3040 4192 2848 652 1736 4272 4220
1637046771524,20,10,2152 0 0 0 0 124 1768 176 0 0 184 0 0 1920 5256 4848 2392 0 0 180 428 0 0 376 388 3048 4184 2840 648 1756 4260 4240
1637046771524,20,10,2144 0 0 0 0 116 1720 156 0 0 208 0 0 1900 5260 4856 2412 0 0 252 516 0 0 404 340 3060 4216 2804 648 1744 4288 4260
1637046771618,20,10,2180 0 0 0 0 128 1748 176 0 0 160 0 0 1908 5320 4836 2416 0 0 264 540 0 0 396 368 3060 4244 2860 668 1776 4284 4252
1637046771618,20,10,2184 0 0 0 0 124 1764 160 0 0 152 0 0 1928 5344 4848 2412 0 0 316 600 0 0 404 348 3036 4240 2848 652 1780 4312 4320
1637046771633,20,10,2224 0 0 0 0 108 1736 164 0 0 176 0 0 1928 5268 4864 2416 0 0 400 568 0 0 380 316 3056 4288 2864 680 1816 4324 4328
1637046771665,20,10,2236 0 0 0 0 112 1672 104 0 0 144 0 0 1868 5320 4856 2428 0 0 416 608 0 0 360 284 3076 4292 2880 704 1840 4332 4368
1637046771727,20,10,2236 0 0 0 0 0 1580 0 0 0 180 0 0 1920 5360 4864 2460 0 0 460 620 0 0 328 300 3088 4296 2904 700 1820 4428 4408
1637046771727,20,10,2252 0 0 0 0 0 1500 0 0 0 164 0 0 1900 5380 4900 2500 0 0 428 620 0 0 240 264 3088 4288 2892 720 1808 4460 4452
1637046771743,20,10,2280 0 0 0 0 0 1352 0 0 0 188 0 0 1916 5404 4908 2544 0 0 412 640 0 0 264 232 3100 4348 2940 700 1852 4536 4492
1637046771774,20,10,2304 0 0 0 0 0 1276 0 0 0 148 0 0 1884 5428 5008 2552 0 0 420 604 0 0 188 204 3084 4360 2964 740 1928 4596 4572
1637046771821,20,10,2300 0 0 0 0 0 1120 0 0 0 152 0 0 1904 5408 5020 2576 0 0 400 572 0 0 136 136 3116 4356 2972 768 1872 4644 4596
1637046771836,20,10,2340 0 0 0 0 0 908 0 0 0 160 0 0 1852 5428 5020 2580 0 0 396 508 0 0 124 148 3128 4364 2956 752 1956 4700 4632
1637046771914,20,10,2348 0 0 0 0 0 816 0 0 0 136 0 0 1860 5456 5116 2568 0 56 348 508 0 0 96 0 3096 4416 3004 704 2048 4760 4700
1637046771930,20,10,2360 0 0 0 0 0 788 0 0 0 176 0 0 1900 5484 5200 2576 0 0 292 432 0 0 72 0 3112 4380 3028 700 2080 4796 4788
1637046771961,20,10,2356 0 0 0 0 0 672 0 0 0 156 0 0 1908 5448 5244 2584 0 0 204 252 0 0 0 0 3080 4428 3044 696 2048 4852 4804
1637046771977,20,10,2372 0 0 0 0 0 516 0 0 0 176 0 0 1852 5484 5312 2628 0 0 184 96 0 0 0 0 3040 4364 3056 712 2060 4896 4844
1637046772008,20,10,2368 0 0 0 0 0 412 0 0 0 192 0 0 1880 5504 5440 2656 0 0 108 0 0 0 0 0 3072 4456 3040 720 2032 5028 4940
1637046772071,20,10,2324 0 0 0 0 0 224 0 0 0 176 0 0 1924 5492 5584 2672 0 0 0 0 0 0 0 0 3024 4456 3080 700 2128 5128 5024
1637046772071,20,10,2332 0 0 0 0 0 68 0 0 0 160 0 0 1932 5484 5660 2652 0 0 0 0 0 0 0 0 3020 4480 3168 672 2220 5244 5020
1637046772086,20,10,2324 0 0 0 0 0 0 0 0 0 184 0 0 1984 5448 5812 2616 0 0 0 0 0 0 0 0 3088 4552 3132 636 2312 5324 5068
1637046772133,20,10,2248 0 0 0 0 0 0 0 0 52 184 0 0 1992 5460 5952 2652 0 0 0 0 0 0 0 0 3116 4588 3168 616 2400 5456 5132
1637046772180,20,10,2260 0 0 0 0 0 0 0 0 0 208 0 0 2072 5428 6008 2624 0 0 0 0 0 0 0 0 3112 4632 3148 608 2416 5500 5132
1637046772196,20,10,2276 0 0 0 0 0 0 0 0 60 176 0 0 2064 5440 6048 2612 0 0 0 0 0 0 0 0 3072 4576 3136 592 2444 5564 5168
1637046772227,20,10,2272 0 0 0 0 0 0 0 0 0 188 0 0 2060 5348 6092 2628 0 0 0 0 0 0 0 0 3072 4628 3144 628 2472 5568 5188
1637046772336,20,10,2308 0 0 0 0 0 0 0 0 72 172 0 0 2072 5408 6180 2628 0 0 0 0 0 0 0 0 3076 4672 3136 576 2528 5612 5220
1637046772336,20,10,2292 0 0 0 0 0 0 0 0 60 160 0 0 2028 5344 6224 2628 0 0 0 0 0 0 0 0 3008 4608 3132 572 2528 5664 5232
1637046772368,20,10,2332 0 0 0 0 0 0 0 0 60 176 0 0 2020 5332 6320 2628 0 0 0 0 0 0 0 0 2984 4648 3128 580 2536 5680 5244
1637046772368,20,10,2360 0 0 0 0 0 0 0 0 72 196 0 0 2076 5344 6412 2628 0 0 0 0 0 0 0 0 3004 4736 3196 656 2560 5704 5304
1637046772383,20,10,2384 0 0 0 0 0 0 0 0 76 172 0 0 2048 5312 6508 2640 0 0 0 0 0 0 0 0 2952 4720 3192 592 2556 5688 5276
1637046772477,20,10,2428 0 0 0 0 0 0 0 0 64 208 0 0 2040 5312 6536 2664 0 0 0 0 0 0 0 0 2968 4748 3180 604 2584 5692 5268
1637046772477,20,10,2432 0 0 0 0 0 0 0 0 0 196 0 0 2044 5308 6592 2620 0 0 0 0 0 0 0 0 2892 4764 3188 636 2604 5724 5268
1637046772524,20,10,2420 0 0 0 0 0 0 0 0 0 188 0 0 2056 5328 6568 2668 0 0 0 0 0 0 0 0 2892 4796 3160 640 2616 5808 5336
1637046772524,20,10,2444 0 0 0 0 0 0 0 0 80 200 0 0 2076 5280 6540 2620 0 0 0 0 0 0 0 0 2828 4800 3164 656 2572 5784 5296
1637046772586,20,10,2428 0 0 0 0 0 0 0 0 0 188 0 0 2064 5252 6560 2676 0 0 0 0 0 0 0 0 2772 4796 3148 656 2588 5804 5312
1637046772586,20,10,2436 0 0 0 0 0 0 0 0 56 240 0 0 2036 5192 6556 2676 0 0 0 0 0 0 0 0 2844 4788 3196 636 2608 5792 5376
1637046772617,20,10,2508 0 0 0 0 0 0 0 0 0 176 0 0 2020 5124 6544 2648 0 0 0 0 0 0 0 0 2772 4752 3164 612 2620 5804 5360
1637046772664,20,10,2500 0 0 0 0 0 0 0 0 0 192 0 0 2048 5136 6552 2700 0 0 0 0 0 0 0 0 2784 4744 3192 648 2588 5788 5404
1637046772680,20,10,2524 0 0 0 0 0 0 0 0 0 152 0 0 2012 5092 6536 2688 0 0 0 0 0 0 0 0 2768 4724 3148 636 2624 5820 5352
1637046772711,20,10,2532 0 0 0 0 0 0 0 0 0 116 0 0 2016 5120 6540 2588 0 0 0 0 0 0 0 0 2784 4724 3176 628 2640 5852 5416
1637046772774,20,10,2572 0 0 0 0 0 0 0 0 0 112 0 0 1996 5068 6644 2568 0 0 0 0 0 0 0 0 2692 4740 3168 688 2600 5828 5404
1637046772774,20,10,2596 0 0 0 0 0 0 0 0 0 92 0 0 1972 5088 6576 2524 0 0 0 0 0 0 0 0 2700 4732 3140 680 2588 5828 5412
1637046772805,20,10,2576 0 0 0 0 0 0 0 0 0 88 0 0 1996 5072 6496 2524 0 0 0 0 0 0 0 0 2696 4740 3124 688 2564 5764 5364
1637046772852,20,10,2564 0 0 0 0 0 0 0 0 0 120 0 0 1996 5060 6528 2500 0 0 0 0 0 0 0 0 2652 4720 3112 668 2556 5776 5356
1637046772852,20,10,2584 0 0 0 0 0 0 0 0 0 60 0 0 1960 5032 6544 2400 0 0 0 0 0 0 0 0 2644 4684 3160 708 2536 5784 5372
1637046772883,20,10,2584 0 0 0 0 0 0 0 0 0 68 0 0 1960 4972 6492 2428 0 0 0 0 0 0 0 0 2672 4708 3128 708 2568 5788 5372
1637046772946,20,10,2640 0 0 0 0 0 0 0 0 0 100 0 0 1956 4960 6488 2432 0 0 0 0 0 0 0 0 2644 4700 3124 668 2548 5764 5372
1637046772946,20,10,2620 0 0 0 0 0 0 0 0 0 52 0 0 1960 4952 6432 2392 0 0 0 0 0 0 0 0 2620 4696 3100 700 2528 5764 5376
1637046773008,20,10,2608 0 0 0 0 0 0 0 0 0 0 0 0 1948 4964 6412 2380 0 0 0 0 0 0 0 0 2628 4680 3144 736 2528 5776 5320
1637046773024,20,10,2608 0 0 0 0 0 0 0 0 0 0 0 0 1960 4916 6348 2356 0 0 0 0 0 0 0 0 2592 4660 3132 680 2504 5752 5280
1637046773055,20,10,2572 0 0 0 0 0 0 0 0 0 0 0 0 1948 4912 6272 2300 0 0 0 0 0 0 0 0 2588 4648 3124 636 2440 5620 5248
1637046773118,20,10,2620 0 0 0 0 0 0 0 0 0 0 0 0 1924 4924 6268 2272 0 0 0 0 0 0 0 0 2564 4624 3068 660 2428 5760 5272
1637046773118,20,10,2644 0 0 0 0 0 0 0 0 0 0 0 0 1904 4884 6204 2228 0 0 0 0 0 0 0 0 2608 4572 3096 672 2424 5740 5276
1637046773149,20,10,2652 0 0 0 0 0 0 0 0 0 0 0 0 1884 4868 6160 2240 0 0 0 0 0 0 0 0 2596 4580 3104 688 2412 5744 5264
1637046773196,20,10,2668 0 0 0 0 0 0 0 0 0 0 0 0 1904 4832 6124 2224 0 0 0 0 0 0 0 0 2556 4616 3112 704 2432 5684 5260
1637046773211,20,10,2648 0 0 0 0 0 0 0 0 0 0 0 0 1908 4824 6192 2204 0 0 0 0 0 0 0 0 2556 4612 3116 728 2416 5700 5240
1637046773227,20,10,2624 0 0 0 0 0 0 0 0 0 0 0 0 1916 4808 6184 2212 0 0 0 0 0 0 0 0 2548 4580 3076 696 2396 5672 5216
1637046773289,20,10,2636 0 0 0 0 0 0 0 0 0 0 0 0 1892 4820 6132 2188 0 0 0 0 0 0 0 0 2492 4556 3104 692 2380 5708 5196
1637046773321,20,10,2620 0 0 0 0 0 0 0 0 0 0 0 0 1904 4816 6112 2172 0 0 0 0 0 0 0 0 2524 4500 3088 680 2368 5700 5208
1637046773337,20,10,2656 0 0 0 0 0 0 0 0 0 0 0 0 1908 4804 6012 2136 0 0 0 0 0 0 0 0 2488 4476 3100 708 2296 5728 5204
1637046773368,20,10,2660 0 0 0 0 0 0 0 0 0 0 0 0 1908 4792 6020 2084 0 0 0 0 0 0 0 0 2476 4452 3072 740 2344 5716 5192
1637046773399,20,10,2680 0 0 0 0 0 0 0 0 0 0 0 0 1884 4832 6004 2076 0 0 0 0 0 0 0 0 2476 4508 3092 704 2352 5692 5176
1637046773446,20,10,2692 0 0 0 0 0 0 0 0 0 0 0 0 1924 4804 6056 2072 0 0 0 0 0 0 0 0 2492 4540 3104 712 2308 5728 5220
1637046773493,20,10,2696 0 0 0 0 0 0 0 0 0 0 0 0 1940 4796 6096 2096 0 0 0 0 0 0 0 0 2512 4528 3092 708 2380 5756 5216
1637046773493,20,10,2716 0 0 0 0 0 0 0 0 0 0 0 0 1968 4848 6148 2148 0 0 0 0 0 0 0 0 2536 4556 3148 708 2400 5732 5292
1637046773539,20,10,2732 0 0 0 0 0 0 0 0 0 0 0 0 1984 4824 6144 2188 0 0 0 0 0 0 0 0 2548 4608 3128 764 2408 5728 5264
1637046773586,20,10,2756 0 0 0 0 0 0 0 0 0 0 0 0 1968 4848 6184 2208 0 0 0 0 0 0 0 0 2520 4584 3112 748 2340 5744 5264
1637046773602,20,10,2748 0 0 0 0 0 0 0 0 0 0 0 0 1964 4876 6152 2172 0 0 0 0 0 0 0 0 2524 4576 3104 768 2312 5708 5244
1637046773618,20,10,2756 0 0 0 0 0 0 0 0 0 0 0 0 1976 4820 6168 2192 0 0 0 0 0 0 0 0 2544 4584 3100 752 2292 5692 5240
1637046773649,20,10,2756 0 0 0 0 0 0 0 0 0 0 0 0 1928 4764 6180 2224 0 0 0 0 0 0 0 0 2568 4612 3048 760 2284 5692 5196
1637046773681,20,10,2748 0 0 0 0 0 0 0 0 0 0 0 0 1900 4780 6284 2228 0 0 0 0 0 0 0 0 2560 4640 3044 732 2244 5684 5232
1637046773712,20,10,2768 0 0 0 0 0 0 0 0 0 0 0 0 1888 4812 6296 2244 0 0 0 0 0 0 0 0 2492 4636 3044 724 2276 5628 5192
1637046773743,20,10,2728 0 0 0 0 0 0 0 0 0 0 0 0 1864 4796 6328 2224 0 0 0 0 0 0 0 0 2544 4688 3072 764 2172 5636 5196
1637046773791,20,10,2684 0 0 0 0 0 0 0 0 0 0 0 0 1888 4784 6304 2256 0 0 0 0 0 0 0 0 2524 4664 3068 752 2148 5632 5180
1637046773837,20,10,2684 0 0 0 0 0 0 0 0 0 0 0 0 1876 4800 6268 2288 0 0 0 0 0 0 0 0 2552 4648 3072 768 2140 5664 5132
1637046773853,20,10,2732 0 0 0 0 0 0 0 0 0 0 0 0 1888 4796 6256 2268 0 0 0 0 0 0 0 0 2528 4624 3036 800 2012 5620 5148
1637046773900,20,10,2700 0 0 0 0 0 0 0 0 0 0 0 0 1888 4804 6232 2296 0 0 0 0 0 0 0 0 2528 4608 3060 764 2084 5652 5152
1637046773915,20,10,2736 0 0 0 0 0 0 0 0 0 0 0 0 1920 4812 6240 2276 0 0 0 0 0 0 0 0 2532 4600 3056 772 2076 5612 5208
1637046773947,20,10,2684 0 0 0 0 0 0 0 0 0 0 0 0 1904 4824 6200 2280 0 0 0 0 0 0 0 0 2532 4572 3052 764 2100 5632 5120
1637046773962,20,10,2704 0 0 0 0 0 0 0 0 0 0 0 0 1884 4812 6224 2268 0 0 0 0 0 0 0 0 2540 4580 3044 784 2148 5596 5084
1637046774051,20,10,2736 0 0 0 0 0 0 0 0 0 0 0 0 1904 4796 6212 2296 0 0 0 0 0 0 0 0 2520 4548 3076 792 2140 5628 5108
1637046774052,20,10,2736 0 0 0 0 0 0 0 0 0 0 0 0 1908 4804 6188 2308 0 0 0 0 0 0 0 0 2500 4596 3004 764 2116 5624 5132
1637046774097,20,10,2724 0 0 0 0 0 0 0 0 0 0 0 0 1888 4800 6256 2304 0 0 0 0 0 0 0 0 2516 4636 3068 732 2152 5628 5124
1637046774126,20,10,2744 0 0 0 0 0 0 0 0 0 0 0 0 1876 4796 6236 2296 0 0 0 0 0 0 0 0 2528 4628 3088 772 2160 5632 5128
1637046774141,20,10,2752 0 0 0 0 0 0 0 0 0 0 0 0 1920 4800 6252 2268 0 0 0 0 0 0 0 0 2524 4652 3064 776 2156 5612 5124
1637046774172,20,10,2756 0 0 0 0 0 0 0 0 0 0 0 0 1924 4796 6272 2284 0 0 0 0 0 0 0 0 2524 4656 3120 808 2172 5612 5164
1637046774216,20,10,2772 0 0 0 0 0 0 0 0 0 0 0 0 1912 4836 6208 2260 0 0 0 0 0 0 0 0 2512 4636 3072 748 2196 5596 5132
1637046774262,20,10,2784 0 0 0 0 0 0 0 0 0 0 0 0 1948 4808 6252 2328 0 0 0 0 0 0 0 0 2532 4640 3064 772 2160 5576 5148
1637046774277,20,10,2776 0 0 0 0 0 0 0 0 0 0 0 0 1968 4796 6240 2308 0 0 0 0 0 0 0 0 2520 4652 3068 772 2140 5616 5116
1637046774307,20,10,2776 0 0 0 0 0 0 0 0 0 60 0 0 1924 4780 6264 2304 0 0 0 0 0 0 0 0 2544 4632 3080 796 2108 5592 5100
1637046774321,20,10,2764 0 0 0 0 0 0 0 0 0 64 0 0 1944 4788 6268 2292 0 0 0 0 0 0 0 0 2512 4628 3060 788 2096 5600 5120
1637046774366,20,10,2744 0 0 0 0 0 0 0 0 0 0 0 0 1960 4768 6288 2308 0 0 0 0 0 0 0 0 2540 4620 3080 800 2060 5580 5040
1637046774412,20,10,2732 0 0 0 0 0 0 0 0 0 60 0 0 1956 4764 6272 2300 0 0 0 0 0 0 0 0 2500 4608 3096 796 2068 5552 5024
1637046774426,20,10,2724 0 0 0 0 0 0 0 0 0 68 0 0 1916 4788 6292 2260 0 0 0 0 0 0 0 0 2532 4628 3048 832 2080 5552 5028
1637046774472,20,10,2752 0 0 0 0 0 0 0 0 0 88 0 0 1928 4816 6300 2312 0 0 0 0 0 0 0 0 2532 4636 3100 804 2080 5532 4996
1637046774501,20,10,2748 0 0 0 0 0 0 0 0 0 60 0 0 1932 4832 6308 2296 0 0 0 0 0 0 0 0 2564 4644 3100 792 2096 5532 5016
1637046774516,20,10,2724 0 0 0 0 0 0 0 0 0 116 0 0 1960 4820 6308 2288 0 0 0 0 0 0 0 0 2564 4608 3152 808 2092 5544 5104
1637046774577,20,10,2756 0 0 0 0 0 0 0 0 0 88 0 0 2008 4840 6304 2292 0 0 0 0 0 0 0 0 2568 4588 3160 844 2112 5600 5088
1637046774577,20,10,2776 0 0 0 0 0 0 0 0 0 68 0 0 1976 4848 6284 2288 0 0 0 0 0 0 0 0 2556 4596 3168 856 2144 5604 5072
1637046774621,20,10,2772 0 0 0 0 0 0 0 0 0 56 0 0 1984 4844 6268 2320 0 0 0 0 0 0 0 0 2556 4580 3156 852 2200 5600 5092
1637046774652,20,10,2772 0 0 0 0 0 0 0 0 0 0 0 0 2004 4844 6284 2344 0 0 0 0 0 0 0 0 2592 4580 3188 832 2188 5608 5112
1637046774714,20,10,2768 0 0 0 0 0 0 0 0 0 0 0 0 2036 4876 6264 2328 0 0 0 0 0 0 0 0 2568 4608 3184 840 2224 5600 5164
1637046774714,20,10,2780 0 0 0 0 0 0 0 0 0 0 0 0 1996 4876 6288 2324 0 0 0 0 0 0 0 0 2580 4612 3188 844 2200 5632 5128
1637046774741,20,10,2788 0 0 0 0 0 0 0 0 0 64 0 0 2024 4880 6296 2344 0 0 0 0 0 0 0 0 2576 4612 3216 860 2208 5640 5164
1637046774771,20,10,2796 0 0 0 0 0 0 0 0 0 0 0 0 2048 4876 6324 2316 0 0 0 0 0 0 0 0 2580 4596 3200 852 2244 5616 5172
1637046774815,20,10,2788 0 0 0 0 0 0 0 0 0 0 0 0 2068 4884 6336 2332 0 0 0 0 0 0 0 0 2592 4620 3204 872 2236 5644 5184
1637046774831,20,10,2796 0 0 0 0 0 0 0 0 0 80 0 0 2072 4884 6360 2392 0 0 0 0 0 0 0 0 2592 4636 3200 888 2248 5632 5172
1637046774848,20,10,2800 0 0 0 0 0 0 0 0 0 80 0 0 2068 4908 6388 2356 0 0 0 0 0 0 0 0 2596 4636 3196 884 2264 5640 5196
1637046774921,20,10,2804 0 0 0 0 0 0 0 0 0 96 0 0 2104 4928 6368 2384 0 0 0 0 0 0 0 0 2604 4648 3232 860 2252 5636 5180
1637046774982,20,10,2796 0 0 0 0 0 0 0 0 68 100 0 0 2076 4892 6372 2372 0 0 0 0 0 0 0 0 2588 4636 3208 864 2236 5636 5176
1637046774982,20,10,2804 0 0 0 0 0 0 0 0 0 96 0 0 2096 4896 6396 2384 0 0 0 0 0 0 0 0 2592 4644 3204 872 2224 5636 5168
1637046775014,20,10,2784 0 0 0 0 0 0 0 0 80 60 0 0 2096 4896 6416 2388 0 0 0 0 0 0 0 0 2592 4628 3212 864 2244 5632 5168
1637046775014,20,10,2808 0 0 0 0 0 0 0 0 68 104 0 0 2080 4908 6424 2364 0 0 0 0 0 0 0 0 2584 4656 3216 836 2236 5632 5184
1637046775072,20,10,2800 0 0 0 0 0 0 0 0 64 72 0 0 2076 4900 6420 2380 0 0 0 0 0 0 0 0 2576 4696 3192 820 2244 5636 5188
1637046775133,20,10,2780 0 0 0 0 0 0 0 0 72 88 0 0 2044 4900 6408 2388 0 0 0 0 0 0 0 0 2584 4676 3164 832 2240 5628 5200
1637046775133,20,10,2788 0 0 0 0 0 0 0 0 64 68 0 0 2084 4896 6424 2408 0 0 0 0 0 0 0 0 2588 4664 3176 864 2232 5612 5172
1637046775177,20,10,2800 0 0 0 0 0 0 0 0 72 80 0 0 2032 4880 6432 2380 0 0 0 0 0 0 0 0 2588 4704 3208 868 2224 5568 5168
1637046775177,20,10,2788 0 0 0 0 0 0 0 0 64 80 0 0 2036 4872 6424 2416 0 0 0 0 0 0 0 0 2544 4668 3172 856 2216 5636 5164
1637046775252,20,10,2780 0 0 0 0 0 0 0 0 60 60 0 0 2032 4896 6412 2456 0 0 0 0 0 0 0 0 2556 4692 3164 836 2240 5592 5172
1637046775267,20,10,2784 0 0 0 0 0 0 0 0 72 96 0 0 2024 4860 6428 2420 0 0 0 0 0 0 0 0 2592 4668 3164 832 2240 5604 5160
1637046775282,20,10,2764 0 0 0 0 0 0 0 0 72 76 0 0 2028 4864 6424 2444 0 0 0 0 0 0 0 0 2576 4688 3152 840 2236 5608 5160
1637046775349,20,10,2788 0 0 0 0 0 0 0 0 68 64 0 0 1988 4852 6432 2452 0 0 0 0 0 0 0 0 2588 4660 3128 836 2240 5612 5200
1637046775381,20,10,2792 0 0 0 0 0 0 0 0 68 96 0 0 1984 4864 6428 2440 0 0 0 0 0 0 0 0 2592 4688 3140 860 2204 5600 5148
1637046775431,20,10,2808 0 0 0 0 0 0 0 0 52 76 0 0 1964 4828 6448 2424 0 0 0 0 0 0 0 0 2572 4692 3184 864 2220 5588 5188
1637046775432,20,10,2800 0 0 0 0 0 0 0 0 56 88 0 0 2012 4876 6440 2420 0 0 0 0 0 0 0 0 2556 4692 3148 856 2200 5616 5184
1637046775433,20,10,2788 0 0 0 0 0 0 0 0 64 60 0 0 1960 4884 6460 2424 0 0 0 0 0 0 0 0 2548 4688 3116 828 2208 5608 5188
1637046775478,20,10,2764 0 0 0 0 0 0 0 0 64 76 0 0 1932 4848 6436 2412 0 0 0 0 0 0 0 0 2532 4704 3100 836 2152 5572 5168
1637046775522,20,10,2768 0 0 0 0 0 0 0 0 0 60 0 0 1864 4844 6468 2416 0 0 0 0 0 0 0 0 2560 4748 3100 844 2132 5604 5116
1637046775536,20,10,2760 0 0 0 0 0 0 0 0 0 76 0 0 1948 4848 6456 2412 0 0 0 0 0 0 0 0 2496 4676 3040 828 2096 5532 5088
1637046775567,20,10,2728 0 0 0 0 0 0 0 0 64 64 0 0 1892 4780 6396 2404 0 0 0 0 0 0 0 0 2484 4768 3040 768 2104 5532 5080
1637046775612,20,10,2704 0 0 0 0 0 0 0 0 52 72 0 0 1912 4752 6436 2464 0 0 0 0 0 0 0 0 2464 4800 3060 768 2012 5484 5056
1637046775657,20,10,2680 0 0 0 0 0 0 0 0 0 76 0 0 1920 4764 6432 2460 0 0 0 0 0 0 0 0 2484 4776 3004 760 1948 5472 4924
1637046775658,20,10,2616 0 0 0 0 0 0 0 0 0 76 0 0 1868 4816 6452 2512 0 0 0 0 0 0 0 0 2500 4808 3028 740 1868 5360 4832
1637046775683,20,10,2556 0 0 0 0 0 0 0 0 0 92 0 0 1920 4760 6548 2564 0 0 0 0 0 0 0 0 2476 4780 3064 756 1836 5276 4764
1637046775747,20,10,2556 0 0 0 0 0 0 0 0 0 160 0 0 1900 4776 6536 2640 0 0 0 0 0 0 0 0 2488 4824 3028 768 1760 5236 4756
1637046775792,20,10,2584 0 0 0 0 0 0 0 0 0 184 0 0 1920 4740 6524 2636 0 0 0 0 0 0 0 0 2512 4764 3028 764 1928 5236 4804
1637046775792,20,10,2644 0 0 0 0 0 0 0 0 0 176 0 0 1940 4744 6604 2672 0 0 0 0 0 0 0 0 2524 4760 3072 764 2040 5228 4868
1637046775852,20,10,2700 0 0 0 0 0 0 0 0 72 128 0 0 1972 4768 6592 2628 0 0 0 0 0 0 0 0 2540 4760 3108 764 2012 5276 4892
1637046775852,20,10,2716 0 0 0 0 0 0 0 0 100 68 0 0 1984 4672 6568 2572 0 0 0 0 0 0 0 0 2544 4696 2944 704 2088 5340 4956
1637046775933,20,10,2712 0 0 0 0 0 0 0 0 0 0 0 0 1880 4584 6400 2468 0 0 0 0 0 0 0 0 2464 4640 2880 656 2092 5360 5068
1637046775933,20,10,2700 0 0 0 0 0 0 0 0 0 0 0 0 1676 4404 6140 2340 0 0 0 0 0 0 0 0 2388 4464 2864 632 2108 5492 5236
1637046775933,20,10,2700 0 0 0 0 0 0 0 0 0 0 0 0 1488 4232 5824 2176 0 0 0 0 0 0 0 0 2332 4392 2836 564 2184 5692 5504
1637046775984,20,10,2816 0 0 0 0 0 0 0 0 0 0 0 0 1276 4060 5552 1940 0 0 0 0 0 0 0 0 2192 4248 2772 504 2252 5844 5612
1637046776002,20,10,3020 0 0 0 0 0 0 0 0 0 0 0 0 972 3820 5120 1716 0 0 0 0 0 0 0 0 2012 4188 2660 472 2244 6028 5684
1637046776048,20,10,3244 0 0 0 0 0 0 0 0 0 0 0 0 796 3540 4480 1532 0 0 0 0 0 0 0 0 1700 3812 2476 284 2232 6116 5708
1637046776077,20,10,3424 0 0 0 0 0 0 0 0 0 0 0 0 472 3248 3852 1256 0 0 0 0 0 0 0 0 1436 3356 2036 0 2088 5916 5832
1637046776106,20,10,3564 0 0 0 0 0 0 0 0 0 0 0 0 256 2848 3236 892 0 0 0 0 0 0 0 0 1188 2920 1584 0 1692 5508 5564
1637046776152,20,10,3704 0 0 0 0 0 0 0 0 0 0 0 0 0 2276 2436 640 0 0 0 0 0 0 0 0 996 2372 1088 0 1384 4920 5140
1637046776168,20,10,3760 0 0 0 0 0 0 0 0 0 0 0 0 0 1840 1380 436 0 0 0 0 0 0 0 0 828 1996 692 0 1072 4360 4604
1637046776197,20,10,3580 0 0 0 0 0 0 0 0 0 0 0 0 0 1528 820 208 0 0 0 0 0 0 0 0 964 1928 608 0 1016 3988 4248
1637046776272,20,10,3588 0 0 0 0 0 0 0 0 0 0 0 0 0 1216 352 320 0 0 0 0 0 0 0 0 940 1848 484 0 964 3756 4160
1637046776286,20,10,3528 0 0 0 0 0 0 0 0 0 0 0 0 0 1232 352 412 0 0 0 0 0 0 0 0 1036 1956 484 0 1020 3904 4124
1637046776286,20,10,3484 0 0 0 0 0 0 0 0 0 0 0 0 0 1236 380 448 0 0 0 0 0 0 0 0 1120 2000 504 0 1064 3944 4120
1637046776351,20,10,3508 0 0 0 0 0 0 0 0 0 0 0 0 0 1312 380 364 0 0 0 0 0 0 0 0 1068 2148 716 0 1080 3800 4116
1637046776351,20,10,3384 0 0 0 0 0 0 0 0 0 0 0 0 0 1316 432 368 0 0 0 0 0 0 0 0 1084 2380 904 0 1096 3784 4224
1637046776407,20,10,3412 0 0 0 0 0 0 0 0 0 0 0 0 0 1336 460 292 0 0 0 0 0 0 0 0 1292 2752 1080 0 1200 3936 4348
1637046776453,20,10,3488 0 0 0 0 0 0 0 0 0 0 0 0 0 1544 856 356 0 0 0 0 0 0 0 0 1456 3004 1304 0 1356 4116 4572
1637046776453,20,10,3532 0 0 0 0 0 0 0 0 0 0 0 0 0 1740 1224 460 324 0 0 0 0 0 0 0 1596 3356 1568 0 1548 4420 4812
1637046776482,20,10,3556 0 0 0 0 0 0 0 0 0 0 0 0 0 1740 2040 604 396 0 0 0 0 0 0 0 1792 3560 1820 0 1768 4564 4880
1637046776527,20,10,3588 0 0 0 0 0 0 0 0 0 0 0 0 0 1976 2692 696 360 0 0 0 0 0 0 0 1984 3956 2052 0 1932 4572 4800
1637046776571,20,10,3396 0 0 0 0 0 0 0 0 0 0 0 0 0 2292 3052 1100 288 0 0 0 0 0 0 0 2096 4088 2132 0 1976 4432 4568
1637046776572,20,10,3220 0 0 0 0 0 0 0 0 0 0 0 0 60 2624 3396 1360 136 0 0 0 0 0 0 0 2304 4216 2312 0 2036 4432 4564
1637046776617,20,10,3048 0 0 0 0 0 0 0 0 0 0 0 0 136 2960 3816 1776 0 0 0 0 0 0 0 0 2512 4240 2332 0 2276 4432 4192
1637046776647,20,10,2760 0 0 0 0 0 0 0 76 0 0 0 0 456 3180 4300 2328 0 0 0 0 0 0 0 0 2444 4116 2224 0 2124 4392 3920
1637046776691,20,10,2368 0 0 0 0 0 0 0 112 0 0 0 0 616 3456 4780 2692 0 0 0 0 0 0 0 0 2568 4024 2128 0 2124 4312 3708
1637046776736,20,10,2216 0 0 0 0 0 0 0 64 0 60 0 0 932 3624 5192 3124 0 0 0 0 0 0 0 0 2588 4024 2036 0 1952 4100 3480
1637046776737,20,10,2052 0 0 0 0 0 0 0 92 276 672 260 0 1260 3800 5632 3388 0 0 0 0 0 0 0 0 2708 3904 1856 0 1884 3900 3140
1637046776782,20,10,1868 0 0 0 0 0 0 0 204 508 1240 592 0 1616 3988 6004 3628 0 0 0 0 0 0 0 0 2724 3688 1788 0 1856 3612 3012
1637046776798,20,10,1564 0 0 0 0 0 0 0 348 808 1636 1008 0 1820 4252 6228 3828 0 0 0 0 0 0 0 0 2752 3816 1736 0 1780 3404 2756
1637046776827,20,10,1500 0 0 0 0 0 0 0 524 1052 1784 1248 0 2084 4508 6400 3972 0 0 0 0 0 0 0 0 2832 3804 1672 0 1752 3320 2664
1637046776872,20,10,1280 0 0 0 0 0 0 0 616 1060 1816 1344 0 2268 4476 6460 4040 124 0 0 0 0 0 0 0 2756 3756 1664 0 1728 3228 2528
1637046776901,20,10,1056 0 0 0 0 0 0 0 640 920 1760 1232 0 2444 4508 6424 3808 192 0 0 0 0 0 0 0 2672 3752 1668 0 1728 3344 2484
1637046776947,20,10,992 0 0 0 0 0 0 0 672 796 1468 1072 0 2308 4496 6320 3508 200 0 0 0 0 0 0 0 2668 3708 1828 0 1700 3612 2584
1637046776992,20,10,928 0 0 0 0 0 0 0 740 676 1296 956 0 2272 4512 6184 3520 188 0 0 0 0 0 0 0 2816 3784 1924 0 1896 3908 2732
1637046776993,20,10,896 0 0 0 0 0 0 0 668 596 1168 884 0 2096 4448 6144 3472 196 0 0 0 0 0 0 0 2832 3804 2040 0 2008 4120 2884
1637046777039,20,10,1096 0 0 0 0 0 0 0 668 476 952 776 0 1940 4372 6220 3648 240 0 0 0 0 0 0 0 2800 3760 2100 0 2092 4176 2944
1637046777127,20,10,1212 0 0 0 0 0 0 0 668 528 972 728 0 1948 4340 6284 3692 272 0 0 0 0 0 0 0 2860 3936 2220 0 2176 4188 3064
1637046777156,20,10,1160 0 0 0 0 0 0 0 668 572 972 720 0 1984 4360 6280 3776 296 0 0 0 0 0 0 0 3080 4080 2336 0 2320 4296 3264
1637046777157,20,10,1272 0 0 0 0 0 0 0 592 508 896 672 0 1952 4316 6224 3744 260 0 0 0 0 0 0 0 3092 3980 2424 0 2416 4344 3360
1637046777158,20,10,1352 0 0 0 0 0 0 0 492 544 900 668 0 1960 4268 6096 3604 184 0 0 0 0 0 0 0 2908 3880 2484 52 2496 4412 3576
1637046777203,20,10,1484 0 0 0 0 0 0 0 304 500 800 604 0 1836 4192 5856 3352 0 0 0 0 0 0 0 0 2660 3688 2488 192 2436 4396 3680
1637046777231,20,10,1632 0 0 0 0 0 0 0 0 444 712 548 0 1888 4164 5744 3252 0 0 0 0 0 0 0 0 2544 3736 2552 184 2460 4476 3848
1637046777247,20,10,1676 0 0 0 0 0 0 0 0 448 664 504 0 1796 4048 5528 2976 0 0 0 0 0 0 0 0 2544 3792 2556 240 2496 4528 3988
1637046777278,20,10,1880 0 0 0 0 0 0 0 0 332 508 336 0 1644 3836 5332 2620 0 0 0 0 0 0 0 0 2560 3700 2500 208 2476 4552 3972
1637046777322,20,10,1896 0 0 0 0 0 0 0 0 296 368 224 0 1628 3776 5180 2440 0 0 0 0 0 0 0 0 2576 3660 2456 156 2412 4504 3980
1637046777337,20,10,1916 0 0 0 0 0 0 0 0 232 340 212 0 1644 3736 5120 2364 0 0 0 0 0 0 0 0 2540 3612 2396 176 2452 4488 4000
1637046777382,20,10,1936 0 0 0 0 0 0 0 0 348 388 156 0 1736 3824 5136 2468 0 0 0 0 0 0 0 0 2400 3588 2472 132 2392 4476 4016
1637046777443,20,10,1944 0 0 0 0 0 0 0 0 444 460 244 0 1832 3948 5288 2472 0 0 0 0 0 0 0 0 2168 3440 2472 132 2288 4408 4000
1637046777443,20,10,1944 0 0 0 0 0 0 0 0 384 544 312 0 1720 3992 5332 2336 0 0 0 0 0 0 0 0 2128 3312 2476 160 2144 4344 3972
1637046777471,20,10,2016 0 0 0 0 0 0 0 0 364 608 320 0 1824 3996 5360 2236 0 0 0 0 0 0 0 0 2132 3164 2460 212 1920 4188 3888
1637046777503,20,10,2000 0 0 0 0 0 0 0 0 428 612 240 0 1984 4000 5308 2096 0 0 0 0 0 0 0 0 2104 3024 2452 200 1920 4028 3840
1637046777607,20,10,2008 0 0 0 0 0 0 0 0 448 560 136 0 1940 3932 5288 2024 0 0 0 0 0 0 0 0 2076 3056 2416 172 1720 3944 3820
1637046777607,20,10,1980 0 0 0 0 0 0 0 0 448 520 120 0 1828 3896 5212 2008 0 0 0 0 0 0 0 0 2024 2820 2300 124 1668 3900 3764
1637046777608,20,10,1988 0 0 0 0 0 0 0 0 456 536 72 0 1776 3900 5148 1936 0 0 0 0 0 0 0 0 2096 2764 2344 120 1720 3968 3820
1637046777652,20,10,2032 0 0 0 0 0 0 0 0 524 552 68 0 1868 3944 5200 1964 0 0 0 0 0 0 0 0 2148 2800 2332 136 1744 4060 3876
1637046777653,20,10,2040 0 0 0 0 0 0 0 0 480 604 136 0 1932 3992 5276 2016 0 0 0 0 0 0 0 0 2128 2880 2364 168 1772 4108 3904
1637046777698,20,10,2072 0 0 0 0 0 0 0 0 504 668 168 0 1948 4004 5292 2076 0 0 0 0 0 0 0 0 2216 2912 2344 204 1820 4156 3976
1637046777786,20,10,2160 0 0 0 0 0 0 0 0 480 688 216 0 1976 4036 5340 2116 0 0 0 0 0 0 0 0 2212 2972 2384 200 1840 4192 4004
1637046777788,20,10,2184 0 0 0 0 0 0 0 0 496 652 208 0 2004 4080 5360 2220 0 0 0 0 0 0 0 0 2256 3020 2340 216 1840 4180 4008
1637046777801,20,10,2256 0 0 0 0 0 0 0 0 524 700 224 0 1996 4092 5376 2252 0 0 0 0 0 0 0 0 2288 3064 2372 280 1848 4200 3968
1637046777831,20,10,2268 0 0 0 0 0 0 0 0 548 720 244 0 2016 4100 5396 2316 0 0 0 0 0 0 0 0 2304 3088 2408 296 1928 4228 3996
1637046777846,20,10,2332 0 0 0 0 0 0 0 0 536 732 292 0 1964 4092 5436 2424 0 0 0 0 0 0 0 0 2340 3100 2400 308 1920 4324 4048
1637046777876,20,10,2364 0 0 0 0 0 0 0 0 584 736 320 0 1932 4108 5452 2500 0 0 0 0 0 0 0 0 2324 3172 2396 352 1948 4372 4064
1637046777938,20,10,2372 0 0 0 0 0 0 0 0 548 752 352 0 1972 4112 5616 2544 0 0 0 0 0 0 0 0 2352 3188 2384 284 1964 4404 4040
1637046777938,20,10,2340 0 0 0 0 0 0 0 0 572 748 348 0 1980 4128 5604 2608 0 0 0 0 0 0 0 0 2444 3252 2380 236 2000 4388 3984
1637046777997,20,10,2300 0 0 0 0 0 0 0 0 568 848 396 0 1900 4156 5744 2712 0 0 0 0 0 0 0 0 2472 3308 2412 252 1968 4408 3996
1637046778011,20,10,2252 0 0 0 0 0 0 0 0 592 860 440 0 1872 4200 5864 2756 0 0 0 0 0 0 0 0 2472 3336 2428 252 1980 4440 3936
1637046778057,20,10,2304 0 0 0 0 0 0 0 0 572 960 440 0 1892 4240 6028 2852 0 0 0 0 0 0 0 0 2460 3324 2428 264 2004 4504 4000
1637046778087,20,10,2304 0 0 0 0 0 0 0 0 592 988 568 0 1924 4220 6184 2916 0 0 0 0 0 0 0 0 2500 3416 2452 256 2064 4536 3980
1637046778102,20,10,2296 0 0 0 0 0 0 0 0 624 996 616 0 1928 4188 6284 2936 0 0 0 0 0 0 0 0 2472 3420 2484 272 2092 4560 3988
1637046778131,20,10,2304 0 0 0 0 0 0 0 0 608 1028 572 0 1960 4192 6328 2976 0 0 0 0 0 0 0 0 2512 3472 2496 252 2124 4580 4016
1637046778161,20,10,2264 0 0 0 0 0 0 0 0 652 1092 648 0 1980 4224 6420 3036 0 0 0 0 0 0 0 0 2492 3524 2468 232 2180 4620 3936
1637046778206,20,10,2188 0 0 0 0 0 0 0 0 604 1088 692 0 2024 4224 6560 3044 0 0 0 0 0 0 0 0 2616 3596 2428 224 2208 4596 3904
1637046778268,20,10,2168 0 0 0 0 0 0 0 0 648 1172 720 0 2032 4228 6628 3104 0 0 0 0 0 0 0 0 2628 3612 2424 156 2212 4616 3900
1637046778312,20,10,2168 0 0 0 0 0 0 0 0 604 1224 744 0 1988 4252 6656 3232 0 0 0 0 0 0 0 0 2604 3644 2436 168 2256 4640 3928
1637046778313,20,10,2104 0 0 0 0 0 0 0 0 608 1192 772 0 2048 4304 6748 3268 0 0 0 0 0 0 0 0 2588 3708 2424 160 2240 4628 3904
1637046778342,20,10,2124 0 0 0 0 0 0 0 0 588 1220 792 0 2064 4336 6796 3280 0 0 0 0 0 0 0 0 2620 3748 2412 156 2312 4656 3916
1637046778356,20,10,2128 0 0 0 0 0 0 0 0 640 1252 828 0 2044 4364 6860 3356 0 0 0 0 0 0 0 0 2716 3788 2464 256 2324 4708 3944
1637046778387,20,10,2160 0 0 0 0 0 0 0 0 680 1300 864 0 2056 4408 6848 3344 0 0 0 0 0 0 0 0 2672 3788 2412 192 2324 4668 3924
1637046778447,20,10,2160 0 0 0 0 0 0 0 0 680 1340 912 0 2076 4416 6788 3336 0 0 0 0 0 0 0 0 2692 3804 2400 224 2300 4624 3896
1637046778447,20,10,2120 0 0 0 0 0 0 0 0 624 1368 940 0 2136 4500 6796 3252 0 0 0 0 0 0 0 0 2684 3856 2392 232 2332 4672 3880
1637046778536,20,10,2132 0 0 0 0 0 0 0 0 692 1408 940 0 2240 4520 6752 3328 0 0 0 0 0 0 0 0 2668 3808 2332 228 2332 4640 3880
1637046778537,20,10,2116 0 0 0 0 0 204 0 0 652 1404 868 0 2248 4552 6704 3324 0 0 0 0 0 0 0 0 2596 3784 2296 192 2320 4608 3860
1637046778568,20,10,2176 0 0 0 0 0 416 60 0 696 1424 888 0 2288 4576 6696 3260 0 0 0 0 0 0 0 0 2672 3712 2308 200 2256 4596 3888
1637046778568,20,10,2196 0 0 0 0 0 524 144 0 704 1392 804 0 2304 4564 6632 3248 0 0 0 0 0 0 0 0 2604 3584 2268 176 2220 4524 3820
1637046778626,20,10,2172 0 0 0 0 0 716 164 0 700 1376 812 0 2308 4560 6576 3212 0 0 0 0 0 0 0 0 2572 3516 2184 124 2212 4484 3808
1637046778672,20,10,2184 0 0 0 0 0 852 180 0 716 1312 788 0 2292 4576 6480 3212 0 0 0 0 0 0 0 0 2544 3468 2156 160 2144 4348 3708
1637046778672,20,10,2144 0 0 0 0 0 1100 216 0 736 1324 792 0 2340 4612 6428 3216 0 0 0 0 0 0 0 0 2592 3456 2208 144 2144 4292 3688
1637046778704,20,10,2148 0 0 0 0 152 1304 392 0 720 1372 844 0 2352 4644 6476 3296 0 0 0 0 0 0 0 0 2696 3492 2188 220 2140 4288 3736
1637046778731,20,10,2184 0 0 0 0 320 1400 496 0 668 1364 860 0 2384 4684 6440 3328 0 0 208 0 0 0 0 0 2660 3436 2164 188 2156 4264 3780
1637046778837,20,10,2168 0 0 0 0 616 1616 792 0 704 1392 796 0 2404 4688 6416 3300 0 0 256 0 0 0 0 0 2580 3420 2140 208 2156 4224 3752
1637046778837,20,10,2172 0 0 0 0 924 1724 820 0 684 1356 792 0 2368 4660 6364 3228 0 0 348 188 0 0 0 0 2580 3380 2080 256 2048 4200 3732
1637046778838,20,10,2224 0 0 0 0 1016 1728 880 0 716 1248 724 0 2292 4596 6244 3124 0 0 456 356 0 0 0 0 2584 3280 1976 156 1936 4092 3664
1637046778896,20,10,2180 0 0 0 0 1152 1828 904 0 696 1176 740 0 2236 4540 6092 3056 0 0 516 452 0 0 0 100 2552 3216 1928 100 1828 4080 3612
1637046778897,20,10,2104 0 0 0 0 1196 1792 856 0 688 1208 760 0 2240 4508 6028 2960 0 0 500 576 0 0 0 76 2532 3108 1944 128 1812 3992 3632
1637046778943,20,10,2152 0 0 0 0 1264 1836 876 0 660 1180 728 0 2216 4476 5916 2844 0 0 496 612 0 0 0 68 2572 3148 1956 56 1808 4048 3620
1637046778971,20,10,2124 0 0 0 0 1268 1840 796 0 656 1124 656 0 2144 4516 5784 2724 0 0 536 632 0 0 0 144 2556 3052 1860 60 1692 3972 3608
1637046778987,20,10,2100 0 0 0 0 1328 1840 844 0 636 1096 616 0 2080 4540 5592 2648 0 0 616 716 0 0 0 144 2516 3036 1840 0 1636 3852 3524
1637046779031,20,10,2072 0 0 0 0 1276 1884 892 0 604 1028 592 0 1996 4452 5480 2580 0 60 600 732 0 0 0 204 2512 2828 1828 0 1584 3780 3496
1637046779061,20,10,2012 0 0 0 0 1336 1900 904 0 620 1028 520 0 2028 4380 5432 2560 0 0 584 708 0 0 0 252 2512 2752 1820 0 1596 3760 3452
1637046779107,20,10,2060 0 0 0 0 1292 1880 880 0 640 1000 524 0 2020 4420 5384 2528 0 0 536 728 0 0 0 272 2500 2696 1788 0 1604 3736 3484
1637046779121,20,10,2064 0 0 0 0 1264 1864 856 0 640 992 480 0 2020 4296 5364 2456 0 0 500 708 0 0 0 228 2484 2732 1792 0 1608 3672 3524
1637046779167,20,10,2036 0 0 0 0 1216 1792 780 0 616 1020 476 0 1980 4348 5280 2396 0 0 484 700 0 0 0 268 2500 2692 1740 0 1536 3708 3516
1637046779181,20,10,2068 0 0 0 0 1216 1776 772 0 604 944 496 0 2016 4376 5296 2356 0 0 476 704 0 0 0 256 2496 2684 1764 0 1548 3708 3544
1637046779212,20,10,2064 0 0 0 0 1156 1796 764 0 736 928 520 0 2012 4368 5304 2376 0 0 512 640 0 0 0 240 2488 2720 1760 0 1556 3716 3532
1637046779256,20,10,2068 0 0 0 0 1196 1800 740 0 596 916 492 0 2020 4448 5296 2408 0 0 512 636 0 0 0 184 2532 2780 1776 0 1572 3708 3484
1637046779269,20,10,2028 0 0 0 0 1176 1740 752 0 640 964 504 0 2044 4456 5276 2404 0 0 412 608 0 0 0 168 2528 2824 1776 0 1616 3692 3476
1637046779317,20,10,2060 0 0 0 0 1168 1784 752 0 656 984 516 0 2096 4448 5280 2424 0 0 352 628 0 0 0 176 2624 2852 1840 0 1640 3740 3484
1637046779353,20,10,2112 0 0 0 0 1192 1744 728 0 636 1036 536 0 2100 4468 5252 2420 0 0 292 604 0 0 0 124 2596 2940 1880 0 1648 3740 3480
1637046779391,20,10,2108 0 0 0 0 1148 1760 604 0 636 1052 540 0 2128 4500 5236 2472 0 0 296 648 0 0 0 144 2648 2884 1884 56 1644 3756 3524
1637046779406,20,10,2128 0 0 0 0 1148 1764 588 0 652 1076 524 0 2168 4456 5196 2364 0 0 376 652 0 0 0 168 2600 2872 1796 0 1644 3708 3496
1637046779437,20,10,2088 0 0 0 0 1168 1740 572 0 584 952 480 0 2012 4328 5092 2260 0 0 320 664 0 0 0 180 2524 2724 1696 0 1596 3760 3448
1637046779466,20,10,2024 0 0 0 0 1144 1660 480 0 628 876 384 0 1920 4284 4976 2208 0 0 244 672 0 0 0 176 2460 2696 1708 0 1596 3688 3452
1637046779511,20,10,1992 0 0 0 0 1120 1564 372 0 612 868 384 0 2004 4332 4948 2172 0 0 164 672 0 0 0 144 2372 2644 1620 0 1492 3532 3364
1637046779526,20,10,1984 0 0 0 0 1060 1476 244 0 564 752 276 0 1968 4288 4796 2016 0 0 116 660 0 0 0 164 2248 2384 1480 0 1400 3432 3408
1637046779571,20,10,1980 0 0 0 0 992 1376 68 0 584 708 240 0 1932 4200 4676 1968 0 0 52 584 0 0 0 192 2168 2312 1420 0 1360 3396 3332
1637046779587,20,10,1884 0 0 0 0 1024 1260 0 0 584 736 240 0 1920 4168 4640 1956 0 0 0 580 0 0 0 156 2148 2336 1448 0 1412 3408 3344
1637046779617,20,10,1908 0 0 0 0 960 904 0 0 616 668 236 0 1884 4092 4596 1952 0 0 0 612 0 0 0 224 2152 2324 1548 0 1452 3448 3412
1637046779661,20,10,1912 0 0 0 0 904 820 0 0 600 680 268 0 1912 4140 4592 1932 0 0 0 484 0 0 0 140 2208 2416 1604 0 1480 3484 3420
1637046779707,20,10,1888 0 0 0 0 876 672 0 0 624 744 260 0 1936 4124 4576 1932 0 0 0 412 0 0 0 132 2168 2548 1648 0 1468 3528 3452
1637046779721,20,10,1884 0 0 0 0 780 444 0 0 632 768 260 0 1852 4116 4536 1900 0 0 0 264 0 0 0 84 2160 2716 1712 0 1472 3580 3496
1637046779753,20,10,1832 0 0 0 0 620 192 0 0 616 768 268 0 1852 4124 4524 1868 0 0 0 228 0 0 0 92 2172 2716 1716 0 1488 3596 3504
1637046779797,20,10,1880 0 0 0 0 460 0 0 0 568 756 272 0 1868 4172 4600 1900 0 0 0 152 0 0 0 84 2200 2836 1740 0 1484 3720 3592
1637046779803,20,10,1892 0 0 0 0 352 0 0 0 600 828 348 0 1920 4224 4704 2000 0 0 0 0 0 0 0 92 2196 2868 1820 0 1564 3792 3720
1637046779857,20,10,1936 0 0 0 0 264 0 0 0 600 840 332 0 1904 4268 4796 2032 0 0 0 0 0 0 0 100 2240 2940 1860 0 1556 3884 3740
1637046779931,20,10,1944 0 0 0 0 264 0 0 0 580 856 332 0 1920 4268 4888 2060 0 0 0 0 0 0 0 100 2308 3008 2008 0 1644 3892 3776
1637046779932,20,10,1964 0 0 0 0 284 0 0 0 588 904 348 0 1904 4312 5000 2084 0 0 0 0 0 0 0 112 2352 3060 1992 0 1696 3920 3732
1637046779947,20,10,1984 0 0 0 0 364 0 0 0 612 916 408 0 1892 4272 5072 2116 0 0 0 0 0 0 0 112 2356 3104 2088 0 1712 3916 3772
1637046779977,20,10,2028 0 0 0 0 356 0 0 0 600 964 412 0 1916 4280 5132 2152 0 0 0 0 0 0 0 100 2396 3088 2128 0 1740 3916 3768
1637046780022,20,10,2040 0 0 0 0 508 0 0 0 592 1020 428 0 1868 4292 5216 2156 0 0 0 0 0 0 0 112 2428 3136 2144 0 1776 3940 3812
1637046780037,20,10,2072 0 0 0 0 540 0 0 0 588 972 460 0 1968 4288 5268 2224 0 0 0 96 0 0 0 128 2460 3124 2144 0 1776 3948 3848
1637046780067,20,10,2116 0 0 0 0 608 240 0 0 636 1020 480 0 1940 4304 5284 2236 0 0 0 76 0 0 0 148 2488 3104 2176 0 1804 3976 3836
1637046780143,20,10,2124 0 0 0 0 632 352 0 0 632 1056 500 0 1948 4272 5348 2232 0 0 0 112 0 0 0 128 2496 3108 2140 0 1768 3988 3840
1637046780144,20,10,2112 0 0 0 0 560 372 0 0 612 1052 508 0 1984 4284 5340 2248 0 0 0 104 0 0 0 116 2520 3136 2172 52 1772 3968 3860
1637046780188,20,10,2108 0 0 0 0 588 384 0 0 620 1072 484 0 1980 4308 5408 2244 0 0 0 124 0 0 0 128 2516 3140 2212 68 1772 3996 3864
1637046780189,20,10,2128 0 0 0 0 604 320 0 0 652 1084 528 0 1988 4276 5468 2256 0 0 0 124 0 0 0 112 2536 3172 2216 56 1792 3964 3820
1637046780232,20,10,2108 0 0 0 0 632 284 0 0 648 1092 512 0 1984 4252 5416 2292 0 0 0 108 0 0 0 124 2512 3168 2220 0 1784 3972 3824
1637046780261,20,10,2144 0 0 0 0 568 244 0 0 676 1084 504 0 1948 4224 5436 2276 0 0 0 116 0 0 0 60 2540 3184 2220 60 1832 4056 3828
1637046780307,20,10,2152 0 0 0 0 572 264 0 0 688 1100 496 0 1984 4240 5432 2280 0 0 0 140 0 0 0 80 2568 3188 2224 88 1812 4008 3888
1637046780321,20,10,2156 0 0 0 0 580 344 0 0 672 1112 504 0 1976 4272 5472 2272 0 0 0 120 0 0 0 100 2556 3168 2240 68 1832 4016 3896
1637046780352,20,10,2172 0 0 0 0 644 396 0 0 680 1132 496 0 2004 4296 5472 2300 0 0 0 124 0 0 0 112 2556 3172 2236 0 1824 3984 3900
1637046780383,20,10,2172 0 0 0 0 636 480 0 0 696 1112 512 0 1976 4260 5508 2320 0 0 0 164 0 0 0 140 2580 3160 2152 0 1856 3996 3888
1637046780426,20,10,2164 0 0 0 0 688 508 0 0 668 1128 536 0 1988 4252 5536 2332 0 0 0 312 0 0 0 144 2704 3136 2164 0 1804 4004 3864
