timestamp,PC,PCD,CH_data
1637046866944,27,2,28376 35443 27753 33738 32843 1 32815 29
1637046867023,28,0,28376 35443 27758 33740 32857 1 32816 28
1637046867023,29,0,28376 35443 27762 33743 32871 2 32818 27
1637046867023,30,0,28376 35443 27766 33745 32887 3 32819 26
1637046867024,31,0,28376 35443 27769 33746 32904 5 32821 25
1637046867024,32,0,28376 35443 27772 33748 32921 8 32822 25
1637046867024,33,0,28376 35443 27773 33748 32938 11 32824 24
1637046867025,34,0,28376 35443 27773 33747 32955 14 32824 23
1637046867025,35,0,28376 35443 27773 33746 32973 18 32825 23
1637046867025,36,0,28376 35443 27771 33743 32991 22 32824 23
1637046867025,37,0,28376 35443 27767 33739 33008 27 32823 22
1637046867026,38,17,28376 35443 27761 33734 33026 31 32822 22
1637046867027,39,1,28376 35443 27753 33727 33042 36 32820 22
1637046867026,40,30,28376 35443 27742 33720 33058 42 32817 23
1637046867027,41,79,28376 35443 27729 33711 33072 47 32814 23
1637046867026,42,0,28376 35443 27713 33701 33084 52 32810 23
1637046867027,43,3,28376 35443 27697 33690 33093 58 32806 24
1637046867028,44,0,28376 35443 27679 33678 33099 63 32802 24
1637046867028,45,0,28376 35443 27659 33666 33101 68 32798 25
1637046867028,46,0,28376 35443 27639 33653 33099 74 32793 26
1637046867068,47,0,28376 35443 27618 33640 33093 79 32788 27
1637046867068,48,0,28376 35443 27596 33626 33083 84 32784 27
1637046867068,49,0,28376 35443 27574 33612 33068 89 32779 28
1637046867069,50,0,28376 35443 27550 33598 33050 94 32774 30
1637046867069,51,0,28376 35443 27527 33584 33027 99 32770 31
1637046867069,52,0,28376 35443 27503 33570 33000 103 32767 32
1637046867069,53,0,28376 35443 27480 33556 32969 108 32764 33
1637046867070,54,17,28376 35443 27457 33543 32935 112 32761 34
1637046867070,55,1,28376 35443 27435 33530 32899 116 32759 36
1637046867070,56,10,28376 35443 27413 33517 32860 120 32758 37
1637046867128,57,79,28376 35443 27393 33506 32820 124 32758 38
1637046867128,58,0,28376 35443 27374 33495 32780 128 32758 39
1637046867128,59,4,28376 35443 27356 33485 32742 132 32758 41
1637046867130,60,0,28376 35443 27339 33476 32703 135 32759 42
1637046867130,61,0,28376 35443 27323 33467 32667 139 32760 43
1637046867130,62,0,28376 35443 27309 33460 32634 142 32762 44
1637046867130,63,0,28376 35443 27297 33453 32604 146 32764 45
1637046867130,0,111,28376 35443 27286 33448 32579 150 32765 46
1637046867130,1,65,28376 35443 27277 33443 32558 153 32767 47
1637046867132,2,177,28376 35443 27269 33439 32541 157 32768 48
1637046867132,3,24,28376 35443 27263 33436 32528 160 32768 49
1637046867132,4,86,28376 35443 27258 33433 32519 164 32769 49
1637046867132,5,139,28376 35443 27254 33432 32514 168 32769 50
1637046867132,6,85,28376 35443 27252 33430 32512 171 32769 50
1637046867132,7,1,28376 35443 27250 33430 32513 175 32768 50
1637046867132,8,30,28376 35443 27250 33430 32516 178 32768 50
1637046867173,9,77,28376 35443 27251 33431 32521 182 32766 50
1637046867173,10,0,28376 35443 27252 33432 32527 185 32764 50
1637046867173,11,1,28376 35443 27255 33434 32535 188 32762 49
1637046867175,12,0,28376 35443 27258 33436 32543 191 32760 49
1637046867176,13,0,28376 35443 27262 33439 32552 195 32757 48
1637046867175,14,0,28376 35443 27266 33443 32562 197 32755 47
1637046867176,15,2,28376 35443 27272 33446 32571 200 32753 46
1637046867175,16,93,28376 35443 27278 33450 32579 203 32751 45
1637046867176,17,97,28376 35443 27284 33455 32587 205 32749 44
1637046867177,18,49,28376 35443 27291 33460 32593 207 32748 43
1637046867177,19,23,28376 35443 27299 33465 32598 209 32747 41
1637046867177,20,228,28376 35443 27308 33470 32602 211 32747 40
1637046867177,21,163,28376 35443 27317 33475 32604 213 32747 38
1637046867233,22,85,28376 35443 27326 33481 32605 214 32748 36
1637046867233,23,1,28376 35443 27335 33486 32605 215 32749 34
1637046867233,24,30,28376 35443 27344 33492 32604 216 32750 32
1637046867234,25,77,28376 35443 27351 33498 32602 217 32751 31
1637046867235,26,0,28376 35443 27359 33504 32601 218 32753 29
1637046867234,27,2,28376 35443 27367 33510 32600 218 32755 27
1637046867235,28,0,28376 35443 27375 33516 32600 218 32757 25
1637046867234,29,0,28376 35443 27384 33522 32601 219 32759 23
1637046867235,30,0,28376 35443 27394 33528 32603 218 32760 21
1637046867237,31,0,28376 35443 27404 33534 32607 218 32762 19
1637046867237,32,0,28376 35443 27413 33541 32612 218 32764 17
1637046867237,33,0,28376 35443 27423 33546 32619 217 32766 15
1637046867237,34,0,28376 35443 27433 33552 32627 217 32768 13
1637046867237,35,0,28376 35443 27442 33557 32637 216 32768 12
1637046867237,36,0,28376 35443 27452 33562 32647 215 32770 10
1637046867237,37,0,28376 35443 27461 33567 32658 214 32771 8
1637046867279,38,17,28376 35443 27469 33572 32669 213 32772 7
1637046867279,39,1,28376 35443 27477 33576 32679 212 32774 6
1637046867279,40,30,28376 35443 27485 33579 32688 210 32775 5
1637046867281,41,79,28376 35443 27492 33583 32695 209 32776 3
1637046867282,42,0,28376 35443 27499 33586 32701 208 32777 2
1637046867281,43,3,28376 35443 27505 33590 32705 206 32778 2
1637046867282,44,0,28376 35443 27510 33593 32707 205 32779 1
1637046867281,45,0,28376 35443 27515 33595 32708 203 32779 0
1637046867282,46,0,28376 35443 27519 33598 32707 201 32779 0
1637046867311,47,0,28376 35443 27522 33600 32706 200 32779 0
1637046867311,48,0,28376 35443 27525 33603 32703 198 32778 0
1637046867311,49,0,28376 35443 27528 33605 32701 196 32777 0
1637046867311,50,0,28376 35443 27531 33607 32698 195 32776 0
1637046867327,51,0,28376 35443 27533 33609 32696 193 32775 0
1637046867327,52,0,28376 35443 27534 33610 32694 191 32773 0
1637046867311,53,0,28376 35443 27536 33611 32694 189 32772 0
1637046867327,54,17,28376 35443 27537 33612 32694 187 32770 0
1637046867327,55,1,28376 35443 27538 33612 32696 185 32769 0
1637046867311,56,10,28376 35443 27539 33613 32700 183 32768 1
1637046867327,57,79,28376 35443 27540 33614 32705 181 32768 1
1637046867327,58,0,28376 35443 27541 33614 32712 178 32767 2
1637046867311,59,4,28376 35443 27541 33615 32721 176 32767 2
1637046867368,60,0,28376 35443 27542 33615 32732 174 32766 3
1637046867368,61,0,28376 35443 27543 33616 32744 171 32766 4
1637046867368,62,0,28376 35443 27543 33616 32757 169 32766 4
1637046867369,63,0,28376 35443 27544 33617 32770 166 32767 5
1637046867370,0,111,28376 35443 27545 33617 32784 163 32767 6
1637046867369,1,65,28376 35443 27546 33618 32799 160 32768 6
1637046867370,2,177,28376 35443 27548 33619 32814 157 32768 7
1637046867369,3,24,28376 35443 27550 33620 32829 154 32768 8
1637046867370,4,86,28376 35443 27552 33620 32843 151 32769 8
1637046867369,5,139,28376 35443 27554 33621 32857 148 32770 9
1637046867429,6,85,28376 35443 27557 33622 32870 145 32770 9
1637046867429,7,1,28376 35443 27560 33624 32883 141 32771 10
1637046867429,8,30,28376 35443 27563 33626 32894 138 32772 10
1637046867431,9,77,28376 35443 27566 33628 32904 134 32772 11
1637046867431,10,0,28376 35443 27570 33630 32912 131 32772 11
1637046867432,11,1,28376 35443 27574 33633 32920 127 32772 11
1637046867431,12,0,28376 35443 27578 33636 32925 123 32772 12
1637046867431,13,0,28376 35443 27582 33639 32929 119 32771 12
1637046867432,14,0,28376 35443 27586 33642 32931 115 32771 12
1637046867431,15,2,28376 35443 27591 33645 32931 112 32770 12
1637046867431,16,94,28376 35443 27596 33649 32929 108 32769 12
1637046867432,17,97,28376 35443 27601 33653 32925 104 32769 12
1637046867434,18,49,28376 35443 27606 33656 32918 100 32768 12
1637046867434,19,23,28376 35443 27612 33660 32909 96 32768 11
1637046867434,20,228,28376 35443 27616 33664 32897 93 32768 11
1637046867434,21,163,28376 35443 27620 33667 32884 89 32767 11
1637046867473,22,85,28376 35443 27625 33670 32869 85 32767 11
1637046867473,23,1,28376 35443 27630 33674 32852 82 32766 10
1637046867473,24,30,28376 35443 27635 33676 32834 79 32766 10
1637046867475,25,77,28376 35443 27640 33679 32815 76 32765 9
1637046867475,26,0,28376 35443 27645 33682 32795 73 32765 9
1637046867475,27,2,28376 35443 27651 33685 32776 70 32764 8
1637046867475,28,0,28376 35443 27657 33688 32758 68 32764 8
1637046867475,29,0,28376 35443 27663 33691 32741 66 32763 7
1637046867475,30,0,28376 35443 27669 33694 32724 64 32762 7
1637046867477,31,0,28376 35443 27675 33697 32709 62 32761 6
1637046867477,32,0,28376 35443 27681 33699 32696 61 32760 6
1637046867477,33,0,28376 35443 27688 33702 32684 60 32760 5
1637046867548,34,0,28376 35443 27694 33705 32674 59 32759 5
1637046867548,35,0,28376 35443 27700 33708 32666 59 32758 4
1637046867548,36,0,28376 35443 27706 33711 32659 58 32758 3
1637046867548,37,0,28376 35443 27712 33714 32652 59 32757 3
1637046867549,38,17,28376 35443 27717 33717 32647 59 32757 2
1637046867549,39,1,28376 35443 27722 33720 32643 60 32757 2
1637046867549,40,30,28376 35443 27728 33723 32640 61 32757 2
1637046867549,41,79,28376 35443 27733 33727 32639 62 32758 1
1637046867549,42,0,28376 35443 27738 33731 32639 63 32759 1
1637046867549,43,3,28376 35443 27743 33734 32641 65 32760 0
1637046867551,44,0,28376 35443 27748 33738 32645 67 32761 0
1637046867551,45,0,28376 35443 27753 33741 32652 68 32763 0
1637046867551,46,0,28376 35443 27757 33745 32662 70 32765 0
1637046867551,47,0,28376 35443 27762 33748 32674 73 32767 0
1637046867551,48,0,28376 35443 27766 33751 32689 75 32769 0
1637046867551,49,0,28376 35443 27771 33754 32704 77 32772 0
1637046867552,50,0,28376 35443 27775 33757 32720 79 32775 0
1637046867552,51,0,28376 35443 27779 33760 32735 82 32779 0
1637046867552,52,0,28376 35443 27784 33763 32748 84 32783 0
1637046867552,53,0,28376 35443 27788 33766 32759 86 32788 0
1637046867593,54,17,28376 35443 27792 33770 32767 88 32792 0
1637046867593,55,1,28376 35443 27797 33773 32770 90 32796 0
1637046867593,56,10,28376 35443 27801 33776 32772 92 32800 0
1637046867596,57,79,28376 35443 27805 33779 32770 94 32804 0
1637046867596,58,0,28376 35443 27809 33782 32766 96 32807 0
1637046867596,59,4,28376 35443 27814 33785 32760 98 32810 0
1637046867596,60,0,28376 35443 27818 33787 32752 100 32812 0
1637046867596,61,0,28376 35443 27822 33790 32745 101 32813 1
1637046867596,62,0,28376 35443 27826 33793 32740 102 32814 1
1637046867638,63,0,28376 35443 27830 33795 32736 104 32814 1
1637046867638,0,111,28376 35443 27834 33798 32736 105 32813 2
1637046867638,1,65,28376 35443 27837 33799 32738 105 32812 2
1637046867640,2,177,28376 35443 27841 33801 32744 106 32811 2
1637046867640,3,24,28376 35443 27844 33803 32752 106 32810 3
1637046867640,4,86,28376 35443 27848 33804 32763 107 32809 3
1637046867640,5,139,28376 35443 27851 33806 32774 107 32808 4
1637046867640,6,85,28376 35443 27854 33807 32788 106 32807 4
1637046867640,7,1,28376 35443 27856 33808 32802 106 32807 5
1637046867640,8,30,28376 35443 27859 33809 32817 105 32807 5
1637046867642,9,77,28376 35443 27861 33810 32832 105 32808 6
1637046867642,10,0,28376 35443 27863 33810 32846 103 32810 6
1637046867642,11,1,28376 35443 27864 33810 32860 102 32811 7
1637046867683,12,0,28376 35443 27865 33810 32872 101 32813 7
1637046867683,13,0,28376 35443 27864 33809 32884 99 32815 8
1637046867683,14,0,28376 35443 27862 33807 32895 97 32817 9
1637046867684,15,2,28376 35443 27859 33805 32904 95 32820 9
1637046867684,16,94,28376 35443 27854 33801 32912 93 32822 10
1637046867684,17,97,28376 35443 27848 33797 32919 91 32823 11
1637046867685,18,49,28376 35443 27841 33791 32924 88 32825 11
1637046867685,19,23,28376 35443 27832 33783 32929 85 32827 12
1637046867685,20,228,28376 35443 27821 33774 32933 83 32828 13
1637046867685,21,163,28376 35443 27807 33764 32936 80 32829 14
1637046867773,22,85,28376 35443 27790 33753 32938 77 32830 15
1637046867773,23,1,28376 35443 27771 33742 32939 74 32831 16
1637046867773,24,30,28376 35443 27750 33729 32939 71 32831 17
1637046867775,25,77,28376 35443 27727 33715 32937 67 32831 18
1637046867775,26,0,28376 35443 27704 33700 32932 64 32831 19
1637046867775,27,2,28376 35443 27681 33685 32926 61 32830 20
1637046867847,28,0,28376 35443 27657 33669 32916 59 32829 21
1637046867847,29,0,28376 35443 27632 33652 32904 56 32827 22
1637046867847,30,0,28376 35443 27606 33636 32889 53 32825 23
1637046867850,31,0,28376 35443 27580 33620 32870 51 32822 24
1637046867850,32,0,28376 35443 27555 33605 32849 48 32819 25
1637046867850,33,0,28376 35443 27529 33589 32826 46 32816 26
1637046867850,34,0,28376 35443 27504 33574 32800 44 32813 28
1637046867850,35,0,28376 35443 27480 33560 32772 43 32809 29
1637046867850,36,0,28376 35443 27456 33546 32744 42 32805 30
1637046867850,37,0,28376 35443 27434 33533 32714 41 32802 31
1637046867852,38,17,28376 35443 27414 33521 32683 40 32798 33
1637046867852,39,1,28376 35443 27394 33511 32652 40 32795 34
1637046867852,40,30,28376 35443 27376 33501 32622 40 32792 35
1637046867852,41,79,28376 35443 27359 33491 32592 40 32789 36
1637046867852,42,0,28376 35443 27344 33483 32565 41 32786 38
1637046867852,43,3,28376 35443 27330 33475 32539 42 32783 39
1637046867853,44,0,28376 35443 27317 33468 32517 44 32781 40
1637046867853,45,0,28376 35443 27306 33462 32498 46 32778 41
1637046867853,46,0,28376 35443 27296 33458 32484 48 32776 42
1637046867854,47,0,28376 35443 27288 33453 32473 50 32773 44
1637046867854,48,0,28376 35443 27280 33450 32468 53 32771 45
1637046867854,49,0,28376 35443 27275 33447 32467 56 32769 46
1637046867855,50,0,28376 35443 27270 33445 32470 59 32768 47
1637046867855,51,0,28376 35443 27266 33443 32476 62 32767 48
1637046867855,52,0,28376 35443 27263 33442 32486 66 32765 49
1637046867855,53,0,28376 35443 27261 33442 32497 70 32765 50
1637046867856,54,17,28376 35443 27260 33442 32510 74 32765 50
1637046867856,55,1,28376 35443 27260 33442 32523 78 32765 51
1637046867856,56,10,28376 35443 27260 33443 32536 82 32766 52
1637046867857,57,79,28376 35443 27261 33444 32548 86 32768 52
1637046867857,58,0,28376 35443 27263 33445 32559 90 32769 53
1637046867857,59,4,28376 35443 27265 33446 32569 95 32771 53
1637046867858,60,0,28376 35443 27267 33448 32578 99 32774 53
1637046867858,61,0,28376 35443 27270 33450 32585 103 32777 54
1637046867858,62,0,28376 35443 27274 33453 32591 108 32780 54
1637046867859,63,0,28376 35443 27278 33455 32596 112 32782 53
1637046867859,0,111,28376 35443 27282 33458 32600 117 32785 53
1637046867859,1,65,28376 35443 27287 33461 32604 121 32787 53
1637046867893,2,177,28376 35443 27293 33465 32608 126 32789 52
1637046867893,3,24,28376 35443 27299 33469 32613 130 32791 52
1637046867893,4,86,28376 35443 27306 33474 32618 135 32793 51
1637046867893,5,139,28376 35443 27313 33479 32623 139 32795 50
1637046867896,6,85,28376 35443 27321 33483 32629 144 32796 49
1637046867897,7,1,28376 35443 27329 33488 32635 148 32797 48
1637046867896,8,30,28376 35443 27337 33492 32640 152 32798 47
1637046867897,9,77,28376 35443 27345 33497 32646 157 32799 46
1637046867896,10,0,28376 35443 27352 33502 32651 161 32800 44
1637046867897,11,1,28376 35443 27359 33508 32655 165 32801 43
1637046867953,12,0,28376 35443 27366 33513 32658 169 32802 41
1637046867953,13,0,28376 35443 27373 33518 32661 173 32802 40
1637046867953,14,0,28376 35443 27380 33523 32662 177 32803 38
1637046867954,15,2,28376 35443 27388 33528 32662 181 32803 36
1637046867955,16,88,28376 35443 27395 33533 32661 185 32802 34
1637046867954,17,97,28376 35443 27403 33537 32658 189 32802 32
1637046867955,18,49,28376 35443 27410 33541 32655 192 32801 31
1637046867954,19,23,28376 35443 27417 33545 32650 195 32800 29
1637046867955,20,246,28376 35443 27423 33547 32644 198 32799 27
1637046867954,21,174,28376 35443 27429 33550 32637 201 32798 25
1637046867998,22,85,28376 35443 27435 33552 32629 203 32796 23
1637046867998,23,1,28376 35443 27440 33554 32620 206 32794 21
1637046867998,24,30,28376 35443 27445 33555 32611 208 32791 20
1637046868000,25,77,28376 35443 27450 33557 32601 209 32788 18
1637046868001,26,0,28376 35443 27454 33559 32592 211 32785 16
1637046868001,27,2,28376 35443 27458 33560 32584 212 32781 15
1637046868000,28,0,28376 35443 27462 33562 32577 213 32777 14
1637046868001,29,0,28376 35443 27465 33564 32571 213 32772 12
1637046868001,30,0,28376 35443 27468 33566 32567 213 32768 11
1637046868000,31,0,28376 35443 27471 33567 32566 213 32762 10
1637046868001,32,0,28376 35443 27474 33569 32568 213 32757 9
1637046868001,33,0,28376 35443 27476 33570 32572 212 32751 9
1637046868003,34,0,28376 35443 27478 33571 32579 210 32746 8
1637046868003,35,0,28376 35443 27480 33572 32589 209 32741 8
1637046868003,36,0,28376 35443 27481 33573 32601 207 32737 7
1637046868003,37,0,28376 35443 27482 33574 32614 205 32733 7
1637046868003,38,17,28376 35443 27483 33575 32629 203 32730 7
1637046868003,39,1,28376 35443 27484 33576 32645 200 32727 7
1637046868003,40,30,28376 35443 27485 33577 32661 197 32726 7
1637046868043,41,79,28376 35443 27485 33578 32677 194 32725 8
1637046868043,42,0,28376 35443 27486 33579 32692 191 32724 8
1637046868043,43,3,28376 35443 27487 33580 32707 188 32725 9
1637046868045,44,0,28376 35443 27488 33581 32722 184 32726 9
1637046868046,45,0,28376 35443 27489 33582 32736 181 32727 10
1637046868045,46,0,28376 35443 27490 33584 32750 177 32729 11
1637046868046,47,0,28376 35443 27491 33585 32764 174 32732 12
1637046868045,48,0,28376 35443 27493 33587 32776 170 32734 12
1637046868046,49,0,28376 35443 27495 33588 32790 167 32737 13
1637046868087,50,0,28376 35443 27497 33590 32804 163 32740 14
1637046868087,51,0,28376 35443 27499 33591 32818 160 32744 15
1637046868087,52,0,28376 35443 27502 33592 32832 157 32747 16
1637046868087,53,0,28376 35443 27505 33593 32846 154 32751 17
1637046868089,54,17,28376 35443 27508 33594 32860 151 32755 18
1637046868090,55,1,28376 35443 27511 33596 32873 148 32758 20
1637046868089,56,10,28376 35443 27515 33598 32885 145 32762 21
1637046868090,57,79,28376 35443 27519 33600 32896 143 32766 22
1637046868089,58,0,28376 35443 27523 33603 32905 140 32768 23
1637046868090,59,4,28376 35443 27528 33605 32913 138 32772 23
1637046868091,60,0,28376 35443 27532 33608 32920 136 32775 24
1637046868091,61,0,28376 35443 27537 33610 32924 134 32777 25
1637046868091,62,0,28376 35443 27542 33613 32926 132 32779 26
1637046868163,63,0,28376 35443 27547 33615 32927 130 32781 27
1637046868163,0,111,28376 35443 27552 33618 32925 129 32782 28
1637046868163,1,65,28376 35443 27557 33621 32921 127 32782 28
1637046868164,2,177,28376 35443 27562 33624 32916 126 32782 29
1637046868165,3,24,28376 35443 27567 33627 32908 124 32781 30
1637046868164,4,96,28376 35443 27573 33630 32898 123 32780 30
1637046868165,5,139,28376 35443 27578 33634 32886 122 32779 30
1637046868164,6,85,28376 35443 27584 33637 32873 121 32777 31
1637046868165,7,1,28376 35443 27590 33641 32858 119 32776 31
1637046868164,8,30,28376 35443 27596 33645 32841 118 32773 31
1637046868167,9,77,28376 35443 27602 33649 32825 117 32771 32
1637046868167,10,0,28376 35443 27609 33653 32807 116 32769 32
1637046868167,11,1,28376 35443 27615 33657 32790 115 32767 32
1637046868167,12,0,28376 35443 27621 33662 32774 114 32764 32
1637046868167,13,0,28376 35443 27626 33666 32760 113 32761 32
1637046868167,14,0,28376 35443 27631 33671 32747 112 32757 31
1637046868168,15,2,28376 35443 27637 33675 32735 111 32754 31
1637046868168,16,88,28376 35443 27643 33679 32726 110 32751 31
1637046868168,17,97,28376 35443 27649 33683 32718 110 32748 30
1637046868208,18,49,28376 35443 27656 33687 32712 109 32746 30
1637046868208,19,23,28376 35443 27663 33691 32708 108 32744 30
1637046868208,20,246,28376 35443 27670 33695 32705 107 32743 29
1637046868208,21,174,28376 35443 27676 33699 32703 107 32742 28
1637046868210,22,85,28376 35443 27683 33702 32702 106 32742 28
1637046868211,23,1,28376 35443 27689 33705 32702 105 32742 27
1637046868210,24,30,28376 35443 27695 33709 32703 105 32743 26
1637046868211,25,77,28376 35443 27701 33712 32704 104 32744 25
1637046868210,26,0,28376 35443 27707 33715 32707 103 32746 25
1637046868211,27,2,28376 35443 27712 33718 32710 103 32748 24
1637046868212,28,0,28376 35443 27718 33722 32715 102 32750 23
1637046868212,29,0,28376 35443 27724 33725 32722 102 32752 22
1637046868212,30,0,28376 35443 27730 33728 32730 101 32754 21
1637046868253,31,0,28376 35443 27735 33732 32740 101 32755 20
1637046868253,32,0,28376 35443 27741 33735 32753 100 32757 19
1637046868253,33,0,28376 35443 27746 33738 32766 99 32758 18
1637046868256,34,0,28376 35443 27751 33740 32780 99 32759 17
1637046868257,35,0,28376 35443 27755 33743 32796 98 32759 17
1637046868256,36,0,28376 35443 27760 33745 32811 97 32760 16
1637046868257,37,0,28376 35443 27764 33748 32826 96 32760 15
1637046868256,38,17,28376 35443 27769 33750 32840 95 32760 14
1637046868257,39,1,28376 35443 27773 33752 32852 94 32761 13
1637046868256,40,30,28376 35443 27777 33755 32863 93 32762 13
1637046868298,41,79,28376 35443 27781 33757 32873 92 32764 12
1637046868298,42,0,28376 35443 27785 33760 32881 91 32766 12
1637046868298,43,3,28376 35443 27789 33762 32888 90 32768 11
1637046868299,44,0,28376 35443 27793 33765 32894 89 32770 11
1637046868299,45,0,28376 35443 27796 33767 32899 87 32773 10
1637046868299,46,0,28376 35443 27800 33770 32902 86 32776 10
1637046868300,47,0,28376 35443 27803 33772 32903 84 32779 10
1637046868300,48,0,28376 35443 27807 33774 32902 83 32783 9
1637046868300,49,0,28376 35443 27810 33776 32899 81 32786 9
1637046868301,50,0,28376 35443 27814 33778 32892 79 32789 9
1637046868301,51,0,28376 35443 27817 33779 32884 78 32792 9
1637046868301,52,0,28376 35443 27821 33781 32872 76 32795 9
1637046868301,53,0,28376 35443 27824 33783 32858 74 32798 9
1637046868343,54,17,28376 35443 27828 33785 32842 72 32800 9
1637046868343,55,1,28376 35443 27832 33787 32824 71 32802 9
1637046868343,56,10,28376 35443 27836 33789 32805 69 32803 9
1637046868344,57,79,28376 35443 27840 33791 32786 67 32803 9
1637046868344,58,0,28376 35443 27845 33794 32768 66 32802 10
1637046868344,59,4,28376 35443 27849 33796 32752 64 32800 10
1637046868345,60,0,28376 35443 27853 33798 32738 63 32798 10
1637046868345,61,0,28376 35443 27857 33800 32726 61 32795 10
1637046868345,62,0,28376 35443 27860 33802 32717 60 32791 11
1637046868417,63,0,28376 35443 27864 33805 32712 59 32787 11
1637046868417,0,111,28376 35443 27868 33807 32709 58 32783 11
1637046868417,1,65,28376 35443 27872 33811 32710 57 32778 12
1637046868419,2,177,28376 35443 27876 33814 32715 57 32773 12
1637046868419,3,24,28376 35443 27880 33817 32722 56 32769 12
1637046868419,4,96,28376 35443 27884 33820 32733 56 32767 12
1637046868419,5,139,28376 35443 27888 33823 32747 56 32763 13
1637046868420,6,85,28376 35443 27891 33826 32764 56 32761 13
1637046868421,7,1,28376 35443 27894 33828 32782 56 32759 13
1637046868420,8,30,28376 35443 27897 33831 32804 56 32758 13
1637046868421,9,77,28376 35443 27898 33833 32828 56 32757 14
1637046868420,10,0,28376 35443 27899 33834 32853 57 32758 14
1637046868421,11,1,28376 35443 27898 33834 32880 58 32758 14
1637046868422,12,0,28376 35443 27896 33833 32908 59 32759 15
1637046868422,13,0,28376 35443 27892 33831 32937 59 32760 15
1637046868422,14,0,28376 35443 27886 33827 32967 60 32762 15
1637046868422,15,2,28376 35443 27879 33821 32996 61 32764 15
1637046868422,16,88,28376 35443 27869 33814 33026 62 32766 16
1637046868422,17,97,28376 35443 27859 33806 33055 63 32768 16
1637046868423,18,49,28376 35443 27847 33796 33083 64 32770 16
1637046868423,19,23,28376 35443 27832 33785 33109 66 32773 16
1637046868423,20,246,28376 35443 27815 33773 33134 67 32777 16
1637046868423,21,174,28376 35443 27795 33760 33155 68 32781 17
1637046868463,22,85,28376 35443 27774 33745 33174 69 32785 17
1637046868463,23,1,28376 35443 27751 33730 33189 70 32789 17
1637046868463,24,30,28376 35443 27726 33714 33200 70 32793 17
1637046868464,25,77,28376 35443 27701 33698 33207 71 32797 17
1637046868465,26,0,28376 35443 27676 33682 33209 72 32801 17
1637046868464,27,2,28376 35443 27652 33666 33207 73 32804 17
1637046868465,28,0,28376 35443 27626 33650 33200 74 32807 18
1637046868464,29,0,28376 35443 27601 33634 33190 75 32810 18
1637046868465,30,0,28376 35443 27575 33618 33175 76 32812 18
1637046868508,31,0,28376 35443 27550 33603 33157 77 32814 18
1637046868508,32,0,28376 35443 27525 33588 33136 78 32815 17
1637046868508,33,0,28376 35443 27501 33574 33112 79 32815 17
1637046868511,34,0,28376 35443 27478 33561 33086 80 32816 17
1637046868511,35,0,28376 35443 27456 33549 33059 82 32815 17
1637046868512,36,0,28376 35443 27435 33538 33029 84 32815 17
1637046868511,37,0,28376 35443 27417 33527 32998 86 32814 17
1637046868511,38,17,28376 35443 27399 33518 32966 88 32813 17
1637046868512,39,1,28376 35443 27383 33509 32933 91 32812 16
1637046868511,40,30,28376 35443 27369 33502 32900 94 32810 16
1637046868511,41,79,28376 35443 27356 33495 32865 97 32808 16
1637046868512,42,0,28376 35443 27344 33489 32831 101 32806 16
1637046868511,43,3,28376 35443 27334 33484 32797 106 32804 16
1637046868553,44,0,28376 35443 27325 33480 32764 111 32801 15
1637046868553,45,0,28376 35443 27318 33476 32731 116 32798 15
1637046868553,46,0,28376 35443 27311 33473 32698 122 32795 15
1637046868555,47,0,28376 35443 27307 33470 32667 128 32792 15
1637046868555,48,0,28376 35443 27303 33468 32637 135 32788 15
1637046868555,49,0,28376 35443 27300 33467 32610 142 32784 15
1637046868555,50,0,28376 35443 27299 33466 32584 150 32781 15
1637046868555,51,0,28376 35443 27299 33466 32560 158 32777 15
1637046868555,52,0,28376 35443 27299 33467 32539 166 32773 15
1637046868555,53,0,28376 35443 27301 33468 32521 175 32770 15
1637046868598,54,17,28376 35443 27303 33470 32505 183 32768 15
1637046868598,55,1,28376 35443 27305 33471 32493 192 32766 16
1637046868598,56,10,28376 35443 27309 33473 32485 201 32764 16
1637046868600,57,79,28376 35443 27313 33476 32479 210 32762 16
1637046868600,58,0,28376 35443 27318 33479 32476 219 32761 17
1637046868600,59,4,28376 35443 27323 33483 32477 227 32760 17
1637046868600,60,0,28376 35443 27329 33486 32480 236 32760 18
1637046868600,61,0,28376 35443 27334 33490 32487 244 32759 19
1637046868600,62,0,28376 35443 27340 33494 32497 251 32759 19
1637046868601,63,0,28376 35443 27347 33499 32509 258 32760 20
1637046868601,0,111,28376 35443 27353 33503 32524 265 32760 21
1637046868601,1,65,28376 35443 27359 33508 32542 271 32761 21
1637046868644,2,177,28376 35443 27365 33513 32562 277 32762 22
1637046868644,3,24,28376 35443 27371 33517 32583 282 32763 23
1637046868644,4,96,28376 35443 27378 33522 32605 286 32764 24
1637046868644,5,139,28376 35443 27385 33527 32628 290 32766 24
1637046868646,6,85,28376 35443 27392 33532 32651 293 32768 25
1637046868646,7,1,28376 35443 27399 33537 32673 295 32769 26
1637046868646,8,30,28376 35443 27407 33541 32696 297 32772 27
1637046868646,9,77,28376 35443 27414 33546 32717 298 32775 27
1637046868646,10,0,28376 35443 27422 33551 32739 298 32778 28
1637046868646,11,1,28376 35443 27429 33555 32760 298 32782 28
1637046868688,12,0,28376 35443 27437 33559 32781 297 32785 29
1637046868688,13,0,28376 35443 27443 33562 32804 296 32788 29
1637046868688,14,0,28376 35443 27450 33566 32829 293 32791 30
1637046868689,15,2,28376 35443 27456 33568 32856 291 32794 30
1637046868690,16,81,28376 35443 27462 33571 32884 288 32796 30
1637046868689,17,97,28376 35443 27467 33573 32915 284 32797 30
1637046868690,18,49,28376 35443 27473 33576 32945 280 32798 30
1637046868689,19,23,28376 35443 27478 33578 32974 276 32799 30
1637046868690,20,246,28376 35443 27483 33581 33001 271 32799 29
1637046868689,21,189,28376 35443 27487 33583 33024 267 32798 29
1637046868691,22,85,28376 35443 27491 33585 33041 261 32798 29
1637046868691,23,1,28376 35443 27495 33587 33052 256 32797 28
1637046868691,24,30,28376 35443 27498 33588 33056 250 32796 28
1637046868732,25,77,28376 35443 27501 33590 33053 244 32795 27
1637046868732,26,0,28376 35443 27503 33591 33044 239 32795 26
1637046868732,27,2,28376 35443 27506 33591 33029 233 32795 25
1637046868735,28,0,28376 35443 27508 33592 33009 226 32795 25
1637046868735,29,0,28376 35443 27509 33592 32984 220 32796 24
1637046868735,30,0,28376 35443 27511 33593 32955 214 32797 23
1637046868736,31,0,28376 35443 27512 33593 32923 208 32799 22
1637046868736,32,0,28376 35443 27513 33594 32888 202 32801 21
1637046868736,33,0,28376 35443 27513 33595 32852 196 32804 20
1637046868808,34,0,28376 35443 27514 33595 32814 191 32807 19
1637046868808,35,0,28376 35443 27514 33595 32776 185 32811 18
1637046868808,36,0,28376 35443 27514 33595 32739 180 32815 17
1637046868808,37,0,28376 35443 27514 33595 32700 175 32819 16
1637046868811,38,17,28376 35443 27514 33595 32662 170 32824 15
1637046868811,39,1,28376 35443 27514 33595 32624 165 32828 14
1637046868812,40,30,28376 35443 27514 33595 32587 161 32833 13
1637046868811,41,79,28376 35443 27514 33595 32550 157 32837 13
1637046868811,42,0,28376 35443 27515 33596 32514 153 32842 12
1637046868812,43,3,28376 35443 27515 33596 32479 150 32845 11
1637046868811,44,0,28376 35443 27516 33597 32444 147 32849 11
1637046868811,45,0,28376 35443 27516 33597 32410 145 32851 10
1637046868812,46,0,28376 35443 27517 33598 32378 143 32853 10
1637046868814,47,0,28376 35443 27518 33599 32348 141 32853 10
1637046868814,48,0,28376 35443 27520 33600 32321 140 32853 10
1637046868815,49,0,28376 35443 27521 33601 32296 138 32851 10
1637046868814,50,0,28376 35443 27523 33603 32274 138 32849 10
1637046868814,51,0,28376 35443 27526 33604 32256 137 32844 10
1637046868815,52,0,28376 35443 27528 33606 32240 137 32839 11
1637046868814,53,0,28376 35443 27531 33608 32226 138 32833 11
1637046868814,54,17,28376 35443 27534 33610 32216 138 32826 12
1637046868815,55,1,28376 35443 27537 33612 32209 139 32818 12
1637046868814,56,10,28376 35443 27540 33614 32205 140 32810 13
1637046868853,57,79,28376 35443 27544 33617 32205 141 32802 14
1637046868853,58,0,28376 35443 27549 33620 32208 143 32793 15
1637046868853,59,4,28376 35443 27553 33623 32214 145 32785 16
1637046868855,60,0,28376 35443 27558 33626 32223 147 32777 18
1637046868856,61,0,28376 35443 27563 33630 32235 150 32769 19
1637046868855,62,0,28376 35443 27568 33634 32249 152 32762 20
1637046868856,63,0,28376 35443 27573 33637 32265 156 32755 22
1637046868855,0,111,28376 35443 27578 33640 32282 159 32748 24
1637046868856,1,65,28376 35443 27583 33644 32299 163 32742 25
1637046868928,2,177,28376 35443 27589 33646 32318 167 32736 27
1637046868928,3,24,28376 35443 27595 33649 32338 171 32731 29
1637046868928,4,96,28376 35443 27600 33652 32359 176 32727 31
1637046868928,5,139,28376 35443 27606 33654 32380 182 32724 33
1637046868930,6,85,28376 35443 27611 33657 32402 187 32722 35
1637046868931,7,1,28376 35443 27617 33659 32425 193 32721 37
1637046868930,8,30,28376 35443 27622 33661 32447 200 32722 39
1637046868931,9,77,28376 35443 27627 33664 32471 207 32723 41
1637046868930,10,0,28376 35443 27631 33666 32495 214 32726 43
1637046868931,11,1,28376 35443 27636 33669 32519 222 32730 45
1637046868932,12,0,28376 35443 27640 33671 32543 231 32734 47
1637046868933,13,0,28376 35443 27644 33675 32568 239 32739 48
1637046868932,14,0,28376 35443 27649 33679 32592 249 32745 50
1637046868933,15,2,28376 35443 27655 33682 32617 258 32751 52
1637046868932,16,81,28376 35443 27661 33687 32642 268 32757 53
1637046868933,17,97,28376 35443 27667 33691 32666 278 32763 55
1637046868934,18,49,28376 35443 27673 33695 32690 288 32768 56
1637046868934,19,23,28376 35443 27680 33700 32715 299 32775 57
1637046868934,20,246,28376 35443 27686 33704 32738 310 32781 58
1637046868934,21,189,28376 35443 27693 33707 32762 321 32787 59
1637046869097,22,85,28376 35443 27699 33710 32785 331 32793 60
1637046869097,23,1,28376 35443 27705 33713 32807 342 32798 60
1637046869097,24,30,28376 35443 27711 33716 32829 353 32803 60
1637046869097,25,77,28376 35443 27717 33719 32851 363 32807 61
1637046869097,26,0,28376 35443 27723 33722 32871 373 32810 61
1637046869112,27,2,28376 35443 27729 33724 32890 383 32812 60
1637046869097,28,0,28376 35443 27735 33726 32908 392 32813 60
1637046869097,29,0,28376 35443 27740 33728 32925 401 32813 60
1637046869112,30,0,28376 35443 27745 33731 32940 409 32812 59
1637046869097,31,0,28376 35443 27750 33733 32953 416 32809 58
1637046869097,32,0,28376 35443 27755 33736 32965 422 32806 58
1637046869112,33,0,28376 35443 27759 33739 32974 428 32801 57
1637046869115,34,0,28376 35443 27764 33742 32982 433 32795 55
1637046869115,35,0,28376 35443 27768 33745 32987 436 32788 54
1637046869116,36,0,28376 35443 27773 33748 32991 439 32781 53
1637046869115,37,0,28376 35443 27777 33751 32993 440 32773 52
1637046869115,38,17,28376 35443 27781 33754 32992 441 32766 50
1637046869116,39,1,28376 35443 27785 33757 32990 440 32758 49
1637046869115,40,30,28376 35443 27790 33761 32985 438 32750 47
1637046869115,41,79,28376 35443 27794 33764 32979 435 32743 45
1637046869116,42,0,28376 35443 27798 33767 32970 431 32735 44
1637046869115,43,3,28376 35443 27802 33770 32959 425 32729 42
1637046869117,44,0,28376 35443 27807 33772 32945 419 32722 40
1637046869118,45,0,28376 35443 27811 33775 32930 411 32717 39
1637046869118,46,0,28376 35443 27815 33777 32913 403 32713 37
1637046869117,47,0,28376 35443 27819 33780 32895 393 32709 35
1637046869118,48,0,28376 35443 27823 33782 32877 383 32707 34
1637046869118,49,0,28376 35443 27827 33784 32860 372 32705 32
1637046869117,50,0,28376 35443 27831 33787 32843 360 32705 31
1637046869118,51,0,28376 35443 27834 33789 32829 348 32707 30
1637046869118,52,0,28376 35443 27837 33791 32817 335 32710 28
1637046869117,53,0,28376 35443 27840 33793 32808 322 32714 27
1637046869120,54,17,28376 35443 27843 33795 32801 308 32719 26
1637046869120,55,1,28376 35443 27846 33797 32798 294 32726 25
1637046869120,56,10,28376 35443 27849 33799 32797 280 32734 24
1637046869121,57,79,28376 35443 27852 33800 32797 266 32743 23
1637046869121,58,0,28376 35443 27855 33801 32799 252 32752 22
1637046869121,59,4,28376 35443 27858 33803 32802 238 32761 22
1637046869121,60,0,28376 35443 27861 33804 32804 225 32769 21
1637046869121,61,0,28376 35443 27864 33805 32806 212 32778 21
1637046869121,62,0,28376 35443 27867 33807 32806 199 32786 20
1637046869121,63,0,28376 35443 27870 33808 32805 187 32793 20
1637046869121,0,111,28376 35443 27873 33810 32802 175 32799 20
1637046869121,1,65,28376 35443 27877 33812 32798 164 32804 20
1637046869138,2,177,28376 35443 27881 33814 32792 153 32807 20
1637046869138,3,24,28376 35443 27885 33815 32784 143 32809 21
1637046869138,4,96,28376 35443 27889 33818 32777 134 32809 21
1637046869138,5,139,28376 35443 27894 33820 32769 125 32808 21
1637046869140,6,85,28376 35443 27898 33823 32764 117 32805 22
1637046869140,7,1,28376 35443 27902 33826 32759 110 32801 22
1637046869140,8,30,28376 35443 27907 33829 32757 103 32796 23
1637046869140,9,77,28376 35443 27910 33832 32757 97 32790 24
1637046869140,10,0,28376 35443 27913 33834 32761 92 32784 25
1637046869140,11,1,28376 35443 27915 33837 32768 88 32778 26
1637046869167,12,0,28376 35443 27918 33839 32777 84 32772 26
1637046869167,13,0,28376 35443 27921 33842 32790 80 32767 27
1637046869167,14,0,28376 35443 27925 33844 32808 78 32762 28
1637046869169,15,2,28376 35443 27929 33847 32828 75 32757 29
1637046869169,16,81,28376 35443 27932 33849 32853 74 32754 30
1637046869169,17,97,28376 35443 27936 33851 32880 72 32750 31
1637046869198,18,49,28376 35443 27940 33853 32911 71 32748 32
1637046869198,19,23,28376 35443 27944 33855 32943 70 32746 33
1637046869198,20,246,28376 35443 27947 33856 32978 70 32745 34
1637046869198,21,189,28376 35443 27950 33857 33014 70 32744 35
1637046869200,22,85,28376 35443 27953 33857 33051 70 32744 35
1637046869200,23,1,28376 35443 27953 33856 33089 70 32744 36
1637046869200,24,30,28376 35443 27952 33855 33127 70 32745 37
1637046869200,25,77,28376 35443 27948 33852 33166 70 32746 37
1637046869200,26,0,28376 35443 27942 33848 33203 70 32748 38
1637046869200,27,2,28376 35443 27934 33843 33239 71 32750 38
1637046869228,28,0,28376 35443 27923 33836 33273 71 32752 38
1637046869228,29,0,28376 35443 27910 33828 33304 71 32755 39
1637046869228,30,0,28376 35443 27897 33819 33331 71 32757 39
1637046869229,31,0,28376 35443 27881 33809 33353 71 32760 39
1637046869229,32,0,28376 35443 27863 33797 33370 72 32763 39
1637046869229,33,0,28376 35443 27842 33784 33380 72 32765 39
1637046869258,34,0,28376 35443 27820 33770 33384 72 32768 39
1637046869258,35,0,28376 35443 27796 33756 33381 72 32769 38
1637046869258,36,0,28376 35443 27771 33741 33369 72 32771 38
1637046869258,37,0,28376 35443 27745 33725 33350 72 32774 37
1637046869259,38,17,28376 35443 27718 33709 33322 72 32776 37
1637046869259,39,1,28376 35443 27693 33692 33288 73 32778 36
1637046869259,40,30,28376 35443 27668 33675 33247 74 32779 35
1637046869287,41,79,28376 35443 27642 33659 33200 75 32780 35
1637046869287,42,0,28376 35443 27617 33642 33149 76 32781 34
1637046869287,43,3,28376 35443 27592 33627 33094 78 32782 33
1637046869289,44,0,28376 35443 27568 33612 33038 80 32782 32
1637046869289,45,0,28376 35443 27545 33598 32980 83 32782 31
1637046869289,46,0,28376 35443 27523 33584 32924 86 32781 30
1637046869330,47,0,28376 35443 27502 33572 32869 90 32780 29
1637046869330,48,0,28376 35443 27483 33561 32818 95 32779 28
1637046869330,49,0,28376 35443 27465 33550 32770 100 32777 27
1637046869330,50,0,28376 35443 27449 33541 32727 106 32774 26
1637046869330,51,0,28376 35443 27434 33533 32689 113 32772 25
1637046869330,52,0,28376 35443 27420 33525 32655 120 32769 24
1637046869330,53,0,28376 35443 27409 33519 32627 129 32766 23
1637046869330,54,17,28376 35443 27399 33513 32603 138 32763 22
1637046869330,55,1,28376 35443 27391 33509 32583 148 32760 21
1637046869330,56,10,28376 35443 27384 33506 32567 158 32756 20
1637046869330,57,79,28376 35443 27378 33504 32554 169 32753 19
1637046869330,58,0,28376 35443 27374 33502 32544 181 32749 18
1637046869330,59,4,28376 35443 27372 33502 32536 194 32745 17
1637046869330,60,0,28376 35443 27371 33501 32531 206 32741 16
1637046869330,61,0,28376 35443 27371 33502 32529 219 32737 15
1637046869330,62,0,28376 35443 27371 33502 32529 233 32732 14
1637046869378,63,0,28376 35443 27372 33503 32532 246 32728 13
1637046869378,0,111,28376 35443 27373 33505 32537 259 32724 12
1637046869378,1,65,28376 35443 27375 33507 32545 273 32719 12
1637046869381,2,177,28376 35443 27377 33510 32555 286 32715 11
1637046869381,3,24,28376 35443 27381 33514 32568 298 32712 10
1637046869381,4,96,28376 35443 27385 33518 32582 311 32708 10
1637046869381,5,139,28376 35443 27391 33522 32599 323 32705 9
1637046869381,6,85,28376 35443 27397 33527 32617 334 32703 9
1637046869381,7,1,28376 35443 27404 33532 32637 344 32701 8
1637046869381,8,30,28376 35443 27412 33537 32658 354 32700 8
1637046869423,9,77,28376 35443 27420 33542 32680 363 32700 8
1637046869423,10,0,28376 35443 27429 33547 32704 371 32701 7
1637046869423,11,1,28376 35443 27438 33552 32728 378 32702 7
1637046869425,12,0,28376 35443 27448 33558 32754 383 32704 7
1637046869426,13,0,28376 35443 27458 33564 32779 388 32707 7
1637046869427,14,0,28376 35443 27468 33569 32805 392 32711 7
1637046869425,15,2,28376 35443 27478 33575 32831 394 32715 7
1637046869426,16,76,28376 35443 27488 33581 32857 395 32719 7
1637046869427,17,97,28376 35443 27498 33587 32881 395 32724 8
1637046869425,18,50,28376 35443 27508 33592 32904 394 32729 8
1637046869426,19,23,28376 35443 27518 33598 32925 392 32735 8
1637046869427,20,246,28376 35443 27527 33604 32944 389 32741 9
1637046869425,21,202,28376 35443 27537 33610 32959 385 32746 9
1637046869467,22,85,28376 35443 27546 33615 32970 379 32752 10
1637046869467,23,1,28376 35443 27555 33621 32978 373 32758 11
1637046869467,24,30,28376 35443 27563 33626 32981 366 32764 12
1637046869469,25,77,28376 35443 27571 33630 32979 358 32769 13
1637046869469,26,0,28376 35443 27578 33634 32973 349 32774 14
1637046869469,27,2,28376 35443 27584 33638 32963 339 32780 15
1637046869470,28,0,28376 35443 27590 33641 32948 329 32784 16
1637046869470,29,0,28376 35443 27595 33644 32930 318 32789 17
1637046869470,30,0,28376 35443 27600 33646 32909 307 32793 18
1637046869513,31,0,28376 35443 27604 33648 32884 295 32796 20
1637046869513,32,0,28376 35443 27607 33649 32858 283 32799 21
1637046869513,33,0,28376 35443 27609 33650 32831 270 32802 23
1637046869515,34,0,28376 35443 27611 33651 32803 258 32804 24
1637046869516,35,0,28376 35443 27613 33651 32775 245 32805 26
1637046869515,36,0,28376 35443 27613 33651 32749 232 32806 27
1637046869516,37,0,28376 35443 27614 33651 32722 220 32807 29
1637046869515,38,17,28376 35443 27614 33651 32698 208 32807 30
1637046869516,39,1,28376 35443 27613 33650 32676 195 32807 32
1637046869515,40,30,28376 35443 27612 33650 32657 184 32807 33
1637046869517,41,79,28376 35443 27611 33649 32641 172 32807 35
1637046869517,42,0,28376 35443 27610 33648 32629 161 32806 36
1637046869517,43,3,28376 35443 27609 33647 32621 151 32805 37
1637046869558,44,0,28376 35443 27608 33646 32616 141 32804 39
1637046869558,45,0,28376 35443 27607 33646 32615 132 32803 40
1637046869558,46,0,28376 35443 27607 33645 32617 124 32802 41
1637046869559,47,0,28376 35443 27606 33644 32623 116 32801 42
1637046869560,48,0,28376 35443 27606 33644 32632 108 32801 43
1637046869559,49,0,28376 35443 27606 33644 32643 102 32800 44
1637046869560,50,0,28376 35443 27606 33644 32657 96 32799 44
1637046869559,51,0,28376 35443 27607 33644 32674 91 32799 45
1637046869560,52,0,28376 35443 27607 33644 32691 86 32799 45
1637046869559,53,0,28376 35443 27608 33644 32711 83 32799 46
1637046869561,54,17,28376 35443 27609 33645 32731 80 32798 46
1637046869561,55,1,28376 35443 27611 33646 32751 77 32798 46
1637046869561,56,10,28376 35443 27612 33647 32770 75 32798 46
1637046869633,57,79,28376 35443 27614 33648 32790 74 32797 46
1637046869633,58,0,28376 35443 27616 33649 32810 74 32797 45
1637046869633,59,4,28376 35443 27618 33651 32828 74 32796 45
1637046869634,60,0,28376 35443 27620 33652 32845 74 32795 45
1637046869634,61,0,28376 35443 27623 33654 32860 75 32793 44
1637046869634,62,0,28376 35443 27626 33655 32872 76 32792 44
1637046869634,63,0,28376 35443 27629 33657 32882 78 32790 43
1637046869634,0,111,28376 35443 27632 33659 32890 80 32787 42
1637046869634,1,65,28376 35443 27635 33661 32894 82 32785 42
1637046869636,2,177,28376 35443 27638 33662 32895 85 32782 41
1637046869637,3,24,28376 35443 27641 33664 32893 87 32780 40
1637046869636,4,96,28376 35443 27643 33667 32888 90 32777 39
1637046869637,5,139,28376 35443 27646 33669 32879 93 32775 38
1637046869636,6,85,28376 35443 27649 33671 32867 96 32772 37
1637046869637,7,1,28376 35443 27652 33673 32852 99 32770 37
1637046869636,8,30,28376 35443 27656 33676 32835 102 32768 36
1637046869638,9,77,28376 35443 27661 33679 32816 105 32766 35
1637046869638,10,0,28376 35443 27667 33682 32795 107 32764 34
1637046869638,11,1,28376 35443 27672 33685 32772 110 32761 33
1637046869708,12,0,28376 35443 27678 33689 32750 112 32759 32
1637046869708,13,0,28376 35443 27684 33692 32727 114 32757 32
1637046869708,14,0,28376 35443 27690 33696 32705 116 32754 31
1637046869710,15,2,28376 35443 27697 33700 32683 118 32752 30
1637046869712,16,76,28376 35443 27703 33704 32663 119 32749 29
1637046869713,17,97,28376 35443 27709 33707 32645 121 32747 29
1637046869710,18,50,28376 35443 27716 33711 32629 121 32744 28
1637046869712,19,23,28376 35443 27722 33714 32615 122 32742 27
1637046869713,20,246,28376 35443 27729 33718 32603 122 32739 27
1637046869710,21,202,28376 35443 27735 33721 32595 123 32737 26
1637046869712,22,85,28376 35443 27742 33725 32588 122 32735 26
1637046869713,23,1,28376 35443 27748 33729 32584 122 32732 25
1637046869710,24,30,28376 35443 27754 33732 32582 121 32730 25
1637046869753,25,77,28376 35443 27761 33735 32582 120 32728 24
1637046869753,26,0,28376 35443 27768 33739 32583 119 32725 24
1637046869753,27,2,28376 35443 27774 33742 32585 118 32723 24
1637046869755,28,0,28376 35443 27781 33744 32587 116 32721 23
1637046869756,29,0,28376 35443 27788 33748 32591 114 32719 23
1637046869755,30,0,28376 35443 27794 33751 32594 113 32717 23
1637046869756,31,0,28376 35443 27800 33754 32598 111 32716 22
1637046869755,32,0,28376 35443 27806 33758 32603 108 32714 22
1637046869756,33,0,28376 35443 27812 33761 32608 106 32712 22
1637046869757,34,0,28376 35443 27818 33764 32613 104 32711 21
1637046869758,35,0,28376 35443 27823 33767 32618 102 32710 21
1637046869757,36,0,28376 35443 27829 33770 32625 100 32709 21
1637046869758,37,0,28376 35443 27834 33773 32632 98 32708 20
1637046869757,38,17,28376 35443 27839 33775 32640 96 32707 20
1637046869758,39,1,28376 35443 27844 33778 32649 94 32707 20
1637046869757,40,30,28376 35443 27849 33781 32659 92 32706 20
1637046869798,41,79,28376 35443 27853 33784 32671 90 32706 19
1637046869798,42,0,28376 35443 27858 33788 32683 89 32706 19
1637046869798,43,3,28376 35443 27862 33791 32697 88 32706 19
1637046869800,44,0,28376 35443 27866 33794 32711 87 32706 19
1637046869801,45,0,28376 35443 27870 33797 32726 86 32706 19
1637046869800,46,0,28376 35443 27873 33800 32741 85 32706 19
1637046869801,47,0,28376 35443 27877 33802 32756 85 32707 19
1637046869800,48,0,28376 35443 27880 33805 32769 85 32708 19
1637046869801,49,0,28376 35443 27883 33807 32783 86 32710 19
1637046869802,50,0,28376 35443 27886 33809 32797 87 32712 20
1637046869802,51,0,28376 35443 27889 33811 32810 87 32714 20
1637046869802,52,0,28376 35443 27892 33813 32822 89 32717 20
1637046869802,53,0,28376 35443 27895 33815 32834 90 32721 21
1637046869843,54,17,28376 35443 27897 33817 32846 92 32725 21
1637046869843,55,1,28376 35443 27900 33819 32857 94 32730 22
1637046869843,56,10,28376 35443 27902 33821 32867 96 32735 23
1637046869845,57,79,28376 35443 27905 33824 32875 98 32740 24
1637046869846,58,0,28376 35443 27908 33826 32881 100 32745 25
1637046869845,59,4,28376 35443 27910 33828 32883 103 32750 25
1637046869846,60,0,28376 35443 27913 33830 32881 105 32755 26
1637046869845,61,0,28376 35443 27915 33832 32874 108 32760 28
1637046869846,62,0,28376 35443 27916 33833 32861 110 32764 29
1637046869887,63,0,28376 35443 27918 33835 32844 113 32768 30
1637046869887,0,111,28376 35443 27920 33837 32821 115 32770 31
1637046869887,1,65,28376 35443 27922 33838 32793 118 32772 32
1637046869889,2,177,28376 35443 27924 33840 32762 120 32774 34
1637046869890,3,24,28376 35443 27926 33841 32727 122 32774 35
1637046869889,4,96,28376 35443 27928 33843 32690 124 32773 37
1637046869890,5,139,28376 35443 27931 33845 32653 125 32772 38
1637046869889,6,85,28376 35443 27934 33846 32618 127 32769 39
1637046869890,7,1,28376 35443 27937 33848 32587 128 32765 41
1637046869889,8,30,28376 35443 27941 33849 32561 129 32760 42
1637046869891,9,77,28376 35443 27945 33850 32543 129 32755 44
1637046869891,10,0,28376 35443 27948 33852 32533 130 32748 45
1637046869891,11,1,28376 35443 27953 33853 32531 130 32742 46
1637046869948,12,0,28376 35443 27957 33855 32538 130 32735 47
1637046869948,13,0,28376 35443 27962 33857 32552 129 32729 48
1637046869948,14,0,28376 35443 27966 33859 32573 128 32723 49
1637046869950,15,2,28376 35443 27971 33861 32601 127 32718 50
1637046869951,16,76,28376 35443 27975 33863 32634 126 32715 51
1637046869950,17,97,28376 35443 27979 33866 32671 125 32712 51
1637046869951,18,50,28376 35443 27984 33868 32712 123 32711 52
1637046869950,19,23,28376 35443 27988 33871 32755 121 32711 52
1637046869951,20,250,28376 35443 27992 33873 32799 119 32712 52
1637046869950,21,202,28376 35443 27995 33875 32844 117 32714 52
1637046869952,22,85,28376 35443 27997 33877 32891 114 32717 52
1637046869953,23,1,28376 35443 28000 33878 32936 112 32721 52
1637046869952,24,30,28376 35443 28001 33879 32982 110 32725 51
1637046869953,25,77,28376 35443 28001 33880 33026 107 32730 51
1637046869952,26,0,28376 35443 28001 33880 33068 105 32734 50
1637046869953,27,2,28376 35443 27999 33879 33107 103 32739 49
1637046869993,28,0,28376 35443 27996 33877 33144 101 32745 48
1637046869993,29,0,28376 35443 27991 33874 33177 99 32750 47
1637046869993,30,0,28376 35443 27985 33870 33206 97 32755 46
1637046869995,31,0,28376 35443 27976 33865 33229 95 32761 45
1637046869996,32,0,28376 35443 27965 33858 33248 94 32766 44
1637046869995,33,0,28376 35443 27951 33850 33261 92 32771 42
1637046869996,34,0,28376 35443 27936 33841 33267 91 32776 41
1637046869995,35,0,28376 35443 27919 33830 33266 91 32781 39
1637046869996,36,0,28376 35443 27902 33818 33259 90 32786 38
1637046869995,37,0,28376 35443 27883 33806 33245 90 32790 37
1637046870037,38,17,28376 35443 27863 33793 33224 90 32794 35
1637046870037,39,1,28376 35443 27841 33779 33197 91 32798 34
1637046870037,40,30,28376 35443 27818 33765 33163 91 32801 32
1637046870039,41,79,28376 35443 27795 33751 33125 93 32803 31
1637046870040,42,0,28376 35443 27771 33736 33082 94 32805 30
1637046870039,43,3,28376 35443 27747 33722 33036 96 32806 28
1637046870040,44,0,28376 35443 27723 33707 32987 99 32807 27
1637046870039,45,0,28376 35443 27699 33693 32937 102 32807 26
1637046870040,46,0,28376 35443 27676 33679 32886 105 32807 25
1637046870041,47,0,28376 35443 27654 33666 32836 109 32806 24
1637046870041,48,0,28376 35443 27633 33653 32788 114 32805 23
1637046870041,49,0,28376 35443 27613 33641 32744 118 32804 23
1637046870083,50,0,28376 35443 27594 33629 32702 124 32803 22
1637046870083,51,0,28376 35443 27576 33619 32664 130 32801 22
1637046870083,52,0,28376 35443 27560 33610 32631 136 32800 21
1637046870083,53,0,28376 35443 27545 33601 32603 143 32798 21
1637046870084,54,17,28376 35443 27531 33593 32579 150 32797 21
1637046870085,55,1,28376 35443 27519 33586 32559 158 32795 20
1637046870084,56,10,28376 35443 27508 33579 32543 166 32793 20
1637046870085,57,79,28376 35443 27499 33573 32531 175 32791 20
1637046870084,58,0,28376 35443 27491 33569 32520 184 32788 20
1637046870085,59,4,28376 35443 27485 33565 32511 193 32785 21
1637046870087,60,0,28376 35443 27480 33562 32504 202 32782 21
1637046870087,61,0,28376 35443 27476 33560 32498 211 32778 21
1637046870087,62,0,28376 35443 27474 33559 32494 220 32774 21
1637046870158,63,0,28376 35443 27473 33558 32492 230 32770 22
1637046870158,0,111,28376 35443 27473 33558 32491 239 32765 22
1637046870158,1,65,28376 35443 27474 33558 32493 248 32760 23
1637046870160,2,177,28376 35443 27476 33560 32497 256 32754 23
1637046870160,3,24,28376 35443 27480 33562 32503 265 32748 24
1637046870160,4,106,28376 35443 27484 33565 32512 273 32741 24
1637046870160,5,139,28376 35443 27489 33568 32523 280 32735 25
1637046870163,6,85,28376 35443 27494 33572 32536 287 32728 25
1637046870164,7,1,28376 35443 27501 33577 32551 294 32722 26
1637046870164,8,30,28376 35443 27509 33582 32567 300 32717 27
1637046870163,9,77,28376 35443 27517 33588 32584 305 32712 27
1637046870164,10,0,28376 35443 27527 33595 32602 309 32707 28
1637046870164,11,1,28376 35443 27537 33601 32620 313 32703 28
1637046870163,12,0,28376 35443 27547 33608 32638 317 32700 29
1637046870164,13,0,28376 35443 27558 33614 32657 319 32697 29
1637046870164,14,0,28376 35443 27569 33621 32675 321 32696 29
1637046870166,15,2,28376 35443 27579 33628 32694 322 32695 30
1637046870166,16,79,28376 35443 27588 33635 32712 323 32695 30
1637046870166,17,97,28376 35443 27599 33642 32731 322 32696 30
1637046870203,18,50,28376 35443 27610 33649 32749 321 32697 31
1637046870203,19,23,28376 35443 27620 33655 32766 320 32700 31
1637046870203,20,250,28376 35443 27631 33661 32782 318 32703 31
1637046870203,21,195,28376 35443 27642 33667 32799 315 32707 31
1637046870204,22,85,28376 35443 27652 33673 32815 312 32711 31
1637046870205,23,1,28376 35443 27663 33679 32829 308 32717 31
1637046870204,24,30,28376 35443 27673 33685 32843 304 32722 31
1637046870205,25,77,28376 35443 27683 33691 32855 299 32728 31
1637046870204,26,0,28376 35443 27693 33697 32866 294 32735 31
1637046870205,27,2,28376 35443 27702 33703 32874 289 32741 31
1637046870278,28,0,28376 35443 27711 33708 32881 283 32748 31
1637046870278,29,0,28376 35443 27719 33713 32886 277 32755 31
1637046870278,30,0,28376 35443 27727 33718 32890 271 32761 31
1637046870279,31,0,28376 35443 27734 33722 32891 265 32767 31
1637046870280,32,0,28376 35443 27740 33725 32891 258 32772 31
1637046870279,33,0,28376 35443 27746 33728 32889 251 32777 31
1637046870280,34,0,28376 35443 27751 33730 32886 244 32782 31
1637046870279,35,0,28376 35443 27754 33732 32883 237 32786 31
1637046870280,36,0,28376 35443 27758 33734 32878 230 32790 31
1637046870279,37,0,28376 35443 27760 33735 32874 223 32792 31
1637046870282,38,17,28376 35443 27762 33735 32869 215 32795 32
1637046870283,39,1,28376 35443 27763 33735 32865 208 32796 32
1637046870282,40,30,28376 35443 27764 33735 32861 201 32797 32
1637046870283,41,79,28376 35443 27764 33734 32857 194 32797 33
1637046870282,42,0,28376 35443 27763 33733 32855 187 32797 33
1637046870283,43,3,28376 35443 27762 33731 32853 180 32796 34
1637046870284,44,0,28376 35443 27760 33730 32851 173 32794 34
1637046870284,45,0,28376 35443 27758 33728 32851 166 32792 35
1637046870284,46,0,28376 35443 27756 33727 32851 160 32789 35
1637046870383,47,0,28376 35443 27754 33726 32852 153 32785 36
1637046870383,48,0,28376 35443 27752 33724 32853 147 32781 37
1637046870383,49,0,28376 35443 27750 33723 32854 141 32777 37
1637046870384,50,0,28376 35443 27747 33721 32855 135 32772 38
1637046870384,51,0,28376 35443 27745 33720 32856 130 32768 39
1637046870384,52,0,28376 35443 27744 33720 32857 125 32763 39
1637046870384,53,0,28376 35443 27742 33720 32858 120 32757 40
1637046870386,54,17,28376 35443 27741 33720 32859 115 32752 40
1637046870386,55,1,28376 35443 27741 33720 32859 110 32747 41
1637046870386,56,10,28376 35443 27740 33720 32860 106 32742 41
1637046870386,57,79,28376 35443 27740 33720 32861 103 32737 41
1637046870386,58,0,28376 35443 27740 33720 32862 99 32732 42
1637046870386,59,4,28376 35443 27740 33720 32864 96 32728 42
1637046870388,60,0,28376 35443 27740 33720 32866 93 32724 42
1637046870388,61,0,28376 35443 27741 33720 32868 90 32720 42
1637046870388,62,0,28376 35443 27741 33719 32871 88 32716 42
1637046870388,63,0,28376 35443 27742 33719 32873 86 32714 42
1637046870388,0,111,28376 35443 27743 33719 32876 84 32711 41
1637046870388,1,65,28376 35443 27744 33718 32878 82 32709 41
1637046870389,2,177,28376 35443 27745 33719 32879 81 32708 41
1637046870389,3,24,28376 35443 27747 33719 32879 80 32707 40
1637046870389,4,106,28376 35443 27749 33720 32877 79 32706 40
1637046870389,5,139,28376 35443 27752 33721 32874 79 32705 39
1637046870429,6,85,28376 35443 27754 33723 32869 78 32705 38
1637046870429,7,1,28376 35443 27757 33725 32862 78 32705 38
1637046870429,8,30,28376 35443 27759 33727 32853 78 32705 37
1637046870434,9,77,28376 35443 27763 33729 32842 78 32705 36
1637046870434,10,0,28376 35443 27766 33731 32829 78 32704 35
1637046870435,11,1,28376 35443 27769 33733 32814 79 32703 34
1637046870435,12,0,28376 35443 27773 33736 32797 79 32702 33
1637046870434,13,0,28376 35443 27777 33738 32779 80 32701 32
1637046870434,14,0,28376 35443 27781 33740 32761 81 32699 31
1637046870435,15,2,28376 35443 27785 33743 32740 82 32697 30
1637046870435,16,79,28376 35443 27789 33745 32719 83 32694 29
1637046870434,17,97,28376 35443 27794 33748 32698 84 32691 28
1637046870434,18,50,28376 35443 27798 33750 32677 85 32688 28
1637046870435,19,23,28376 35443 27803 33753 32656 86 32684 27
1637046870435,20,250,28376 35443 27807 33755 32637 87 32680 26
1637046870434,21,195,28376 35443 27812 33757 32620 88 32677 26
1637046870473,22,85,28376 35443 27816 33760 32606 89 32673 25
1637046870473,23,1,28376 35443 27821 33762 32594 90 32669 25
1637046870473,24,30,28376 35443 27826 33764 32586 91 32666 24
1637046870518,25,77,28376 35443 27831 33767 32582 92 32663 24
1637046870518,26,0,28376 35443 27836 33769 32582 93 32660 24
1637046870518,27,2,28376 35443 27841 33771 32585 93 32657 24
1637046870520,28,0,28376 35443 27846 33773 32592 94 32655 24
1637046870520,29,0,28376 35443 27851 33776 32603 95 32654 25
1637046870520,30,0,28376 35443 27855 33778 32618 95 32653 25
1637046870520,31,0,28376 35443 27859 33779 32635 96 32652 26
1637046870520,32,0,28376 35443 27863 33781 32656 96 32653 27
1637046870520,33,0,28376 35443 27867 33782 32680 96 32654 28
1637046870522,34,0,28376 35443 27870 33783 32707 97 32656 29
1637046870522,35,0,28376 35443 27873 33784 32736 97 32659 30
1637046870522,36,0,28376 35443 27875 33785 32768 97 32662 31
1637046870522,37,0,28376 35443 27878 33786 32802 97 32667 33
1637046870522,38,17,28376 35443 27881 33787 32838 97 32672 34
1637046870522,39,1,28376 35443 27883 33789 32874 97 32678 36
1637046870522,40,30,28376 35443 27886 33790 32910 97 32684 38
1637046870524,41,79,28376 35443 27888 33792 32945 96 32690 40
1637046870524,42,0,28376 35443 27891 33793 32975 96 32697 42
1637046870524,43,3,28376 35443 27893 33794 33002 96 32704 44
1637046870524,44,0,28376 35443 27895 33796 33022 96 32710 47
1637046870524,45,0,28376 35443 27897 33797 33037 96 32717 49
1637046870524,46,0,28376 35443 27899 33798 33045 96 32723 51
1637046870563,47,0,28376 35443 27901 33799 33046 96 32728 54
1637046870563,48,0,28376 35443 27903 33800 33041 96 32733 56
1637046870563,49,0,28376 35443 27904 33801 33031 96 32736 59
1637046870565,50,0,28376 35443 27906 33802 33017 96 32739 62
1637046870565,51,0,28376 35443 27907 33803 33000 96 32741 64
1637046870565,52,0,28376 35443 27908 33804 32982 97 32742 67
1637046870565,53,0,28376 35443 27910 33805 32964 97 32741 70
1637046870566,54,17,28376 35443 27911 33806 32949 97 32739 72
1637046870566,55,1,28376 35443 27912 33807 32937 98 32736 75
1637046870566,56,10,28376 35443 27914 33808 32931 99 32732 77
1637046870608,57,79,28376 35443 27915 33809 32931 99 32727 80
1637046870608,58,0,28376 35443 27916 33810 32939 100 32720 82
1637046870608,59,4,28376 35443 27917 33811 32954 101 32714 84
1637046870609,60,0,28376 35443 27918 33811 32976 103 32706 86
1637046870609,61,0,28376 35443 27919 33812 33004 104 32699 88
1637046870609,62,0,28376 35443 27921 33812 33036 106 32692 90
1637046870610,63,0,28376 35443 27922 33812 33072 107 32686 92
1637046870610,0,111,28376 35443 27924 33813 33109 109 32681 94
1637046870610,1,65,28376 35443 27926 33813 33147 111 32677 95
1637046870611,2,177,28376 35443 27928 33814 33183 113 32674 96
1637046870611,3,24,28376 35443 27929 33815 33218 116 32672 97
1637046870611,4,106,28376 35443 27931 33815 33251 118 32672 98
1637046870611,5,139,28376 35443 27932 33816 33282 121 32673 98
1637046870683,6,85,28376 35443 27934 33816 33309 124 32674 98
1637046870683,7,1,28376 35443 27934 33816 33334 127 32677 98
1637046870683,8,30,28376 35443 27934 33816 33356 130 32679 98
1637046870684,9,77,28376 35443 27933 33815 33376 133 32683 98
1637046870685,10,0,28376 35443 27930 33813 33395 137 32686 97
1637046870684,11,1,28376 35443 27926 33811 33412 140 32689 96
1637046870685,12,0,28376 35443 27920 33807 33428 144 32692 95
1637046870684,13,0,28376 35443 27912 33803 33443 148 32696 94
1637046870685,14,0,28376 35443 27902 33797 33457 152 32699 93
1637046870686,15,2,28376 35443 27892 33790 33468 156 32703 91
1637046870687,16,79,28376 35443 27880 33783 33476 161 32766 90
1637046870686,17,97,28376 35443 27867 33774 33480 166 32935 88
1637046870687,18,50,28376 35443 27851 33764 33478 170 33128 86
1637046870686,19,23,28376 35443 27834 33753 33470 176 33277 84
1637046870687,20,250,28376 35443 27814 33740 33457 181 33385 82
1637046870686,21,195,28376 35443 27794 33727 33437 187 33460 80
1637046870688,22,85,28376 35443 27772 33712 33410 193 33505 78
1637046870688,23,1,28376 35443 27749 33698 33378 199 33526 76
1637046870688,24,30,28376 35443 27725 33682 33340 206 33525 74
1637046870728,25,77,28376 35443 27700 33666 33296 213 33509 72
1637046870728,26,0,28376 35443 27675 33650 33247 220 33479 70
1637046870728,27,2,28376 35443 27651 33634 33193 228 33439 69
1637046870729,28,0,28376 35443 27628 33619 33136 236 33391 67
1637046870731,29,0,28376 35443 27606 33604 33074 245 33339 66
1637046870729,30,0,28376 35443 27584 33589 33010 254 33284 65
1637046870731,31,0,28376 35443 27562 33575 32944 264 33227 64
1637046870729,32,0,28376 35443 27541 33562 32876 274 33171 63
1637046870731,33,0,28376 35443 27521 33550 32807 285 33116 63
1637046870788,34,0,28376 35443 27501 33539 32738 296 33064 64
1637046870788,35,0,28376 35443 27483 33528 32666 308 33014 65
1637046870788,36,0,28376 35443 27465 33517 32594 320 32968 66
1637046870788,37,0,28376 35443 27448 33508 32522 332 32926 69
1637046870790,38,17,28376 35443 27433 33498 32449 345 32887 71
1637046870790,39,1,28376 35443 27419 33490 32377 358 32852 75
1637046870790,40,30,28376 35443 27407 33482 32306 371 32820 79
1637046870790,41,79,28376 35443 27396 33476 32237 385 32793 85
1637046870790,42,0,28376 35443 27387 33470 32169 398 32768 91
1637046870790,43,3,28376 35443 27379 33465 32105 412 32748 98
1637046870792,44,0,28376 35443 27372 33461 32044 425 32729 105
1637046870792,45,0,28376 35443 27367 33458 31987 438 32713 114
1637046870792,46,0,28376 35443 27363 33456 31936 450 32698 123
1637046870793,47,0,28376 35443 27361 33454 31892 463 32686 134
1637046870793,48,0,28376 35443 27359 33454 31855 474 32675 145
1637046870793,49,0,28376 35443 27359 33454 31824 485 32665 156
1637046870832,50,0,28376 35443 27360 33456 31801 496 32657 169
1637046870832,51,0,28376 35443 27363 33458 31786 506 32650 181
1637046870832,52,0,28376 35443 27365 33462 31778 514 32644 195
1637046870832,53,0,28376 35443 27367 33466 31777 522 32639 208
1637046870834,54,17,28376 35443 27370 33470 31783 529 32635 222
1637046870835,55,1,28376 35443 27374 33474 31796 536 32633 236
1637046870834,56,10,28376 35443 27377 33479 31817 541 32632 249
1637046870835,57,79,28376 35443 27381 33484 31844 545 32633 263
1637046870834,58,0,28376 35443 27386 33489 31878 548 32635 276
1637046870835,59,4,28376 35443 27393 33494 31917 551 32639 289
1637046870836,60,0,28376 35443 27400 33499 31963 553 32644 302
1637046870836,61,0,28376 35443 27409 33504 32012 554 32650 313
1637046870836,62,0,28376 35443 27419 33510 32065 554 32658 324
1637046870908,63,0,28376 35443 27429 33515 32120 554 32667 335
1637046870908,0,111,28376 35443 27440 33521 32177 553 32678 344
1637046870908,1,65,28376 35443 27451 33527 32233 552 32690 352
1637046870909,2,177,28376 35443 27462 33533 32290 551 32704 359
1637046870910,3,24,28376 35443 27473 33539 32346 550 32718 365
1637046870909,4,106,28376 35443 27484 33545 32399 549 32734 369
1637046870910,5,139,28376 35443 27495 33550 32451 547 32750 373
1637046870909,6,85,28376 35443 27506 33556 32499 546 32767 375
1637046870910,7,1,28376 35443 27517 33561 32544 545 32783 376
1637046870909,8,30,28376 35443 27527 33567 32585 545 32800 375
1637046870912,9,77,28376 35443 27536 33572 32621 545 32817 373
1637046870912,10,0,28376 35443 27545 33577 32652 546 32834 370
1637046870912,11,1,28376 35443 27553 33582 32679 547 32849 366
1637046870912,12,0,28376 35443 27561 33587 32701 548 32863 360
1637046870912,13,0,28376 35443 27568 33591 32719 551 32876 353
1637046870912,14,0,28376 35443 27575 33596 32734 554 32888 345
1637046870913,15,2,28376 35443 27581 33600 32745 557 32897 336
1637046870913,16,87,28376 35443 27586 33604 32753 562 32905 327
1637046870913,17,97,28376 35443 27591 33607 32758 566 32911 316
1637046871043,18,50,28376 35443 27594 33610 32761 571 32914 304
1637046871043,19,23,28376 35443 27598 33612 32763 577 32916 292
1637046871043,20,250,28376 35443 27601 33613 32763 583 32917 279
1637046871043,21,177,28376 35443 27603 33614 32763 589 32915 266
1637046871045,22,85,28376 35443 27605 33615 32761 595 32912 252
1637046871045,23,1,28376 35443 27606 33615 32760 601 32907 238
1637046871045,24,30,28376 35443 27606 33614 32758 607 32901 223
1637046871045,25,77,28376 35443 27606 33613 32756 613 32895 209
1637046871045,26,0,28376 35443 27606 33612 32755 618 32887 194
1637046871045,27,2,28376 35443 27605 33611 32755 623 32879 180
1637046871047,28,0,28376 35443 27603 33610 32756 627 32871 166
1637046871047,29,0,28376 35443 27602 33609 32758 630 32863 152
1637046871047,30,0,28376 35443 27600 33608 32761 632 32854 138
1637046871047,31,0,28376 35443 27598 33607 32765 633 32846 125
1637046871047,32,0,28376 35443 27596 33606 32770 633 32837 112
1637046871047,33,0,28376 35443 27594 33605 32777 632 32829 100
1637046871088,34,0,28376 35443 27591 33604 32784 629 32821 89
1637046871088,35,0,28376 35443 27589 33602 32792 625 32814 78
1637046871088,36,0,28376 35443 27587 33601 32801 619 32807 68
1637046871088,37,0,28376 35443 27586 33601 32810 612 32801 59
1637046871089,38,17,28376 35443 27584 33600 32819 603 32794 51
1637046871090,39,1,28376 35443 27583 33600 32828 593 32789 44
1637046871089,40,30,28376 35443 27583 33599 32836 581 32784 37
1637046871090,41,79,28376 35443 27583 33599 32845 568 32779 32
1637046871089,42,0,28376 35443 27583 33599 32853 553 32775 27
1637046871090,43,3,28376 35443 27584 33599 32860 536 32771 24
1637046871091,44,0,28376 35443 27585 33599 32866 518 32768 21
1637046871092,45,0,28376 35443 27587 33599 32871 499 32766 19
1637046871091,46,0,28376 35443 27588 33600 32874 478 32763 18
1637046871092,47,0,28376 35443 27590 33601 32876 456 32761 17
1637046871091,48,0,28376 35443 27593 33603 32876 434 32759 18
1637046871092,49,0,28376 35443 27596 33604 32874 410 32758 19
1637046871093,50,0,28376 35443 27599 33606 32869 386 32757 21
1637046871093,51,0,28376 35443 27602 33608 32862 361 32757 23
1637046871093,52,0,28376 35443 27606 33610 32853 335 32756 26
1637046871093,53,0,28376 35443 27610 33612 32842 309 32756 29
1637046871094,54,17,28376 35443 27614 33614 32830 283 32756 33
1637046871094,55,1,28376 35443 27618 33617 32816 257 32756 37
1637046871094,56,10,28376 35443 27622 33619 32801 232 32757 41
1637046871095,57,79,28376 35443 27626 33621 32785 206 32757 46
1637046871095,58,0,28376 35443 27630 33623 32769 181 32757 51
1637046871095,59,4,28376 35443 27635 33626 32753 156 32756 55
1637046871096,60,0,28376 35443 27640 33629 32736 133 32756 60
1637046871096,61,0,28376 35443 27645 33631 32719 110 32756 64
1637046871096,62,0,28376 35443 27649 33633 32703 88 32755 69
1637046871097,63,0,28376 35443 27652 33636 32687 67 32755 73
1637046871097,0,111,28376 35443 27655 33639 32672 47 32754 77
1637046871097,1,65,28376 35443 27659 33643 32657 29 32753 80
1637046871132,2,177,28376 35443 27663 33646 32644 12 32752 84
1637046871132,3,24,28376 35443 27667 33649 32632 0 32750 86
1637046871132,4,106,28376 35443 27670 33652 32621 0 32749 89
1637046871132,5,139,28376 35443 27674 33656 32613 0 32748 91
1637046871134,6,85,28376 35443 27679 33659 32605 0 32746 93
1637046871134,7,1,28376 35443 27683 33663 32600 0 32745 94
1637046871134,8,30,28376 35443 27688 33665 32596 0 32744 94
1637046871193,9,77,28376 35443 27693 33668 32594 0 32743 94
1637046871193,10,0,28376 35443 27698 33670 32593 0 32743 94
1637046871193,11,1,28376 35443 27704 33673 32595 0 32742 93
1637046871194,12,0,28376 35443 27709 33675 32598 0 32741 92
1637046871195,13,0,28376 35443 27714 33677 32603 0 32740 90
1637046871194,14,0,28376 35443 27719 33680 32609 0 32739 88
1637046871195,15,2,28376 35443 27724 33682 32618 0 32739 86
1637046871194,16,87,28376 35443 27728 33684 32628 0 32738 83
1637046871195,17,97,28376 35443 27733 33686 32641 0 32737 80
1637046871196,18,50,28376 35443 27737 33688 32656 0 32737 76
1637046871197,19,23,28376 35443 27741 33691 32674 0 32736 72
1637046871196,20,250,28376 35443 27745 33693 32696 0 32736 68
1637046871197,21,177,28376 35443 27749 33695 32721 0 32737 64
1637046871196,22,85,28376 35443 27753 33697 32749 0 32738 60
1637046871197,23,1,28376 35443 27757 33698 32778 0 32740 55
1637046871196,24,30,28376 35443 27760 33700 32811 0 32743 51
1637046871198,25,77,28376 35443 27763 33701 32843 0 32746 46
1637046871198,26,0,28376 35443 27766 33702 32874 3 32751 41
1637046871198,27,2,28376 35443 27769 33703 32903 13 32756 37
1637046871238,28,0,28376 35443 27772 33704 32928 24 32762 32
1637046871238,29,0,28376 35443 27775 33704 32948 35 32768 28
1637046871238,30,0,28376 35443 27777 33705 32962 45 32776 24
1637046871239,31,0,28376 35443 27780 33706 32970 56 32785 20
1637046871239,32,0,28376 35443 27782 33707 32973 66 32793 16
1637046871239,33,0,28376 35443 27784 33708 32971 76 32802 12
1637046871240,34,0,28376 35443 27786 33709 32965 86 32811 9
1637046871240,35,0,28376 35443 27788 33709 32957 95 32820 6
1637046871240,36,0,28376 35443 27790 33710 32949 104 32828 3
1637046871240,37,0,28376 35443 27791 33711 32941 113 32836 1
1637046871284,38,17,28376 35443 27793 33712 32935 121 32843 0
1637046871284,39,1,28376 35443 27794 33712 32932 128 32850 0
1637046871284,40,30,28376 35443 27795 33713 32932 135 32856 0
1637046871287,41,79,28376 35443 27796 33713 32937 141 32862 0
1637046871287,42,0,28376 35443 27797 33713 32945 147 32869 0
1637046871288,43,3,28376 35443 27798 33713 32957 152 32875 0
1637046871287,44,0,28376 35443 27800 33713 32973 156 32881 0
1637046871287,45,0,28376 35443 27801 33714 32990 160 32887 0
1637046871288,46,0,28376 35443 27802 33714 33010 163 32894 0
1637046871287,47,0,28376 35443 27804 33714 33030 166 32901 0
1637046871287,48,0,28376 35443 27805 33715 33050 168 32908 0
1637046871288,49,0,28376 35443 27807 33716 33070 169 32915 0
1637046871328,50,0,28376 35443 27808 33716 33088 170 32922 0
1637046871328,51,0,28376 35443 27809 33716 33106 171 32928 0
1637046871328,52,0,28376 35443 27809 33716 33121 171 32934 0
1637046871328,53,0,28376 35443 27809 33716 33135 170 32939 0
1637046871331,54,17,28376 35443 27808 33715 33148 170 32942 2
1637046871332,55,1,28376 35443 27806 33713 33160 169 32945 5
1637046871331,56,10,28376 35443 27802 33711 33171 167 32945 7
1637046871332,57,79,28376 35443 27798 33707 33182 166 32944 9
1637046871331,58,0,28376 35443 27793 33702 33193 164 32942 12
1637046871332,59,4,28376 35443 27785 33696 33205 163 32938 15
1637046871373,60,0,28376 35443 27775 33688 33216 161 32932 18
1637046871373,61,0,28376 35443 27762 33679 33228 159 32926 21
1637046871373,62,0,28376 35443 27747 33669 33239 157 32918 24
1637046871374,63,0,28376 35443 27730 33657 33248 156 32909 27
1637046871375,0,111,28376 35443 27712 33644 33256 154 32899 30
1637046871374,1,65,28376 35443 27692 33630 33261 153 32888 33
1637046871375,2,177,28376 35443 27670 33614 33262 152 32877 37
1637046871374,3,24,28376 35443 27646 33598 33259 152 32866 40
1637046871375,4,106,28376 35443 27621 33581 33252 151 32854 44
1637046871374,5,139,28376 35443 27595 33564 33238 151 32841 47
1637046871377,6,85,28376 35443 27569 33547 33220 152 32829 51
1637046871377,7,1,28376 35443 27542 33531 33195 153 32817 55
1637046871377,8,30,28376 35443 27515 33514 33165 155 32805 59
1637046871419,9,77,28376 35443 27488 33497 33129 157 32793 62
1637046871419,10,0,28376 35443 27461 33481 33088 159 32781 66
1637046871419,11,1,28376 35443 27435 33465 33042 163 32769 70
1637046871419,12,0,28376 35443 27410 33450 32992 166 32760 74
1637046871420,13,0,28376 35443 27386 33436 32938 171 32749 78
1637046871419,14,0,28376 35443 27362 33422 32882 176 32739 82
1637046871420,15,2,28376 35443 27340 33410 32824 182 32729 86
1637046871419,16,87,28376 35443 27319 33399 32766 188 32720 90
1637046871420,17,97,28376 35443 27300 33389 32707 195 32712 94
1637046871462,18,50,28376 35443 27282 33380 32649 202 32704 98
1637046871462,19,23,28376 35443 27266 33372 32593 210 32696 101
1637046871462,20,250,28376 35443 27252 33365 32540 219 32688 105
1637046871462,21,177,28376 35443 27239 33359 32491 228 32680 108
1637046871465,22,85,28376 35443 27228 33354 32445 237 32673 112
1637046871465,23,1,28376 35443 27218 33350 32404 247 32665 115
1637046871465,24,30,28376 35443 27210 33347 32368 256 32658 118
1637046871465,25,77,28376 35443 27202 33344 32338 267 32650 121
1637046871465,26,0,28376 35443 27197 33342 32312 277 32643 123
1637046871465,27,2,28376 35443 27192 33340 32291 287 32636 125
1637046871467,28,0,28376 35443 27189 33338 32275 297 32630 127
1637046871467,29,0,28376 35443 27186 33337 32263 307 32624 129
1637046871467,30,0,28376 35443 27185 33337 32254 317 32618 130
1637046871523,31,0,28376 35443 27185 33337 32249 326 32613 131
1637046871523,32,0,28376 35443 27185 33337 32248 335 32608 132
1637046871523,33,0,28376 35443 27186 33339 32249 344 32605 132
1637046871525,34,0,28376 35443 27188 33340 32252 352 32602 132
1637046871526,35,0,28376 35443 27191 33342 32257 360 32601 132
1637046871527,36,0,28376 35443 27194 33344 32264 367 32600 131
1637046871525,37,0,28376 35443 27197 33347 32272 373 32600 130
1637046871526,38,17,28376 35443 27201 33349 32281 379 32601 129
1637046871527,39,1,28376 35443 27206 33352 32290 384 32603 128
1637046871525,40,30,28376 35443 27211 33356 32299 388 32605 126
1637046871526,41,79,28376 35443 27217 33359 32309 392 32609 124
1637046871527,42,0,28376 35443 27223 33363 32319 395 32613 122
1637046871525,43,3,28376 35443 27230 33367 32328 397 32617 120
1637046871529,44,0,28376 35443 27237 33370 32338 398 32622 118
1637046871529,45,0,28376 35443 27244 33374 32348 399 32627 115
1637046871529,46,0,28376 35443 27251 33378 32359 400 32633 113
1637046871568,47,0,28376 35443 27259 33383 32370 400 32638 110
1637046871568,48,0,28376 35443 27268 33387 32382 399 32644 107
1637046871568,49,0,28376 35443 27276 33392 32395 398 32649 105
1637046871569,50,0,28376 35443 27285 33397 32408 397 32654 102
1637046871570,51,0,28376 35443 27294 33402 32424 395 32659 100
1637046871569,52,0,28376 35443 27303 33407 32441 393 32663 98
1637046871570,53,0,28376 35443 27312 33412 32459 391 32666 96
1637046871569,54,17,28376 35443 27321 33417 32478 389 32669 94
1637046871570,55,1,28376 35443 27330 33422 32499 387 32671 92
1637046871569,56,10,28376 35443 27339 33427 32521 385 32673 91
1637046871628,57,79,28376 35443 27347 33432 32543 383 32675 90
1637046871628,58,0,28376 35443 27355 33437 32565 381 32677 89
1637046871628,59,4,28376 35443 27363 33442 32587 379 32678 88
1637046871629,60,0,28376 35443 27371 33448 32608 377 32679 88
1637046871630,61,0,28376 35443 27378 33453 32628 376 32681 88
1637046871629,62,0,28376 35443 27385 33458 32646 375 32682 88
1637046871630,63,0,28376 35443 27391 33462 32662 374 32683 88
1637046871629,0,111,28376 35443 27397 33467 32676 373 32685 89
1637046871630,1,65,28376 35443 27402 33471 32687 373 32686 90
1637046871632,2,177,28376 35443 27406 33474 32696 372 32688 91
1637046871632,3,24,28376 35443 27411 33478 32702 372 32690 93
1637046871632,4,106,28376 35443 27415 33481 32706 373 32692 95
1637046871632,5,139,28376 35443 27418 33484 32708 373 32695 96
1637046871633,6,85,28376 35443 27421 33487 32708 374 32697 98
1637046871633,7,1,28376 35443 27424 33489 32707 374 32700 101
1637046871633,8,30,28376 35443 27426 33491 32704 375 32704 103
1637046871673,9,77,28376 35443 27428 33492 32702 376 32707 105
1637046871673,10,0,28376 35443 27429 33493 32699 377 32711 108
1637046871673,11,1,28376 35443 27430 33494 32696 378 32714 110
1637046871675,12,0,28376 35443 27430 33495 32694 378 32718 112
1637046871675,13,0,28376 35443 27430 33495 32692 379 32722 115
1637046871675,14,0,28376 35443 27430 33495 32691 379 32726 117
1637046871675,15,2,28376 35443 27430 33494 32690 379 32730 119
1637046871675,16,89,28376 35443 27429 33493 32690 378 32734 121
1637046871675,17,97,28376 35443 27428 33492 32690 377 32738 123
1637046871677,18,50,28376 35443 27427 33491 32690 376 32742 125
1637046871677,19,23,28376 35443 27427 33490 32691 374 32746 127
1637046871677,20,250,28376 35443 27426 33489 32692 372 32749 128
1637046871677,21,173,28376 35443 27425 33488 32693 369 32752 129
1637046871718,22,85,28376 35443 27424 33487 32695 365 32754 130
1637046871718,23,1,28376 35443 27424 33486 32696 361 32756 131
1637046871718,24,30,28376 35443 27424 33485 32698 356 32758 131
1637046871719,25,77,28376 35443 27423 33484 32700 351 32758 131
1637046871720,26,0,28376 35443 27423 33484 32702 345 32759 131
1637046871719,27,2,28376 35443 27423 33484 32704 338 32759 131
1637046871720,28,0,28376 35443 27424 33485 32706 331 32758 130
1637046871719,29,0,28376 35443 27425 33485 32708 323 32758 129
1637046871720,30,0,28376 35443 27425 33486 32710 314 32757 127
1637046871762,31,0,28376 35443 27425 33487 32712 305 32756 126
1637046871762,32,0,28376 35443 27425 33488 32714 295 32754 124
1637046871762,33,0,28376 35443 27426 33490 32716 285 32753 122
1637046871764,34,0,28376 35443 27428 33492 32717 274 32751 120
1637046871765,35,0,28376 35443 27430 33494 32718 263 32750 117
1637046871764,36,0,28376 35443 27433 33496 32719 252 32748 114
1637046871765,37,0,28376 35443 27436 33499 32720 240 32746 111
1637046871764,38,17,28376 35443 27440 33501 32720 228 32745 108
1637046871765,39,1,28376 35443 27444 33504 32720 216 32743 104
1637046871764,40,30,28376 35443 27449 33507 32720 204 32742 101
1637046871767,41,79,28376 35443 27455 33510 32721 192 32741 97
1637046871767,42,0,28376 35443 27460 33513 32721 180 32739 93
1637046871767,43,3,28376 35443 27466 33516 32722 168 32738 89
1637046871853,44,0,28376 35443 27472 33519 32722 156 32737 85
1637046871853,45,0,28376 35443 27478 33522 32723 144 32736 81
1637046871853,46,0,28376 35443 27484 33525 32725 133 32735 76
1637046871855,47,0,28376 35443 27490 33528 32725 122 32733 72
1637046871856,48,0,28376 35443 27496 33531 32726 111 32732 68
1637046871855,49,0,28376 35443 27502 33534 32726 101 32730 64
1637046871856,50,0,28376 35443 27509 33538 32726 91 32729 59
1637046871855,51,0,28376 35443 27516 33542 32724 82 32727 55
1637046871856,52,0,28376 35443 27522 33546 32721 73 32726 51
1637046871855,53,0,28376 35443 27529 33550 32717 64 32725 47
1637046871857,54,17,28376 35443 27537 33554 32711 57 32723 43
1637046871858,55,1,28376 35443 27544 33558 32704 50 32722 39
1637046871857,56,10,28376 35443 27551 33562 32697 43 32721 36
1637046871858,57,79,28376 35443 27557 33566 32688 37 32720 32
1637046871857,58,0,28376 35443 27564 33570 32678 32 32720 29
1637046871858,59,4,28376 35443 27571 33574 32668 27 32719 26
1637046871859,60,0,28376 35443 27577 33578 32658 23 32719 23
1637046871859,61,0,28376 35443 27583 33581 32647 19 32719 20
1637046871859,62,0,28376 35443 27589 33585 32637 17 32719 18
1637046871860,63,0,28376 35443 27595 33588 32627 14 32719 16
1637046871860,0,111,28376 35443 27601 33590 32619 12 32719 14
1637046871860,1,65,28376 35443 27606 33593 32612 11 32720 12
1637046871899,2,177,28376 35443 27611 33595 32607 10 32721 10
1637046871899,3,24,28376 35443 27617 33598 32604 10 32723 9
1637046871899,4,106,28376 35443 27621 33600 32605 10 32725 8
1637046871899,5,139,28376 35443 27626 33602 32609 11 32728 7
1637046871943,6,85,28376 35443 27630 33605 32617 12 32732 6
1637046871943,7,1,28376 35443 27635 33607 32629 14 32737 6
1637046871943,8,30,28376 35443 27639 33609 32644 15 32742 6
1637046871945,9,77,28376 35443 27643 33611 32661 17 32747 6
1637046871945,10,0,28376 35443 27646 33613 32680 20 32754 6
1637046871945,11,1,28376 35443 27650 33614 32699 22 32761 7
1637046871945,12,0,28376 35443 27654 33616 32717 25 32768 8
1637046871945,13,0,28376 35443 27657 33618 32733 28 32774 9
1637046871945,14,0,28376 35443 27660 33619 32747 31 32781 10
1637046871947,15,2,28376 35443 27662 33622 32757 35 32788 11
1637046871947,16,89,28376 35443 27664 33624 32763 38 32795 12
1637046871947,17,97,28376 35443 27666 33626 32766 42 32801 14
1637046871947,18,50,28376 35443 27669 33629 32765 45 32806 15
1637046871947,19,24,28376 35443 27672 33631 32762 49 32811 17
1637046871947,20,4,28376 35443 27676 33634 32758 53 32814 19
1637046871947,21,173,28376 35443 27679 33636 32753 57 32816 20
1637046871949,22,85,28376 35443 27684 33638 32749 60 32817 22
1637046871949,23,1,28376 35443 27688 33641 32747 64 32816 24
1637046871949,24,30,28376 35443 27692 33643 32747 68 32814 26
1637046871950,25,77,28376 35443 27697 33646 32749 72 32812 28
1637046871950,26,0,28376 35443 27702 33648 32754 75 32809 30
1637046871950,27,2,28376 35443 27706 33651 32762 79 32805 31
1637046871988,28,0,28376 35443 27711 33653 32772 82 32800 33
1637046871988,29,0,28376 35443 27716 33656 32785 85 32796 35
1637046871988,30,0,28376 35443 27720 33658 32799 88 32792 36
1637046871990,31,0,28376 35443 27724 33660 32815 91 32788 38
1637046871991,32,0,28376 35443 27727 33662 32832 94 32784 39
1637046871990,33,0,28376 35443 27731 33664 32849 96 32781 40
1637046871991,34,0,28376 35443 27734 33666 32866 98 32779 42
1637046871990,35,0,28376 35443 27736 33667 32883 100 32777 43
1637046871991,36,0,28376 35443 27738 33668 32900 101 32776 43
1637046871990,37,0,28376 35443 27739 33668 32917 103 32775 44
1637046872034,38,17,28376 35443 27740 33667 32933 103 32775 45
1637046872034,39,1,28376 35443 27741 33666 32950 104 32775 45
1637046872034,40,30,28376 35443 27741 33664 32966 104 32776 46
1637046872036,41,79,28376 35443 27739 33661 32982 104 32777 46
1637046872036,42,0,28376 35443 27735 33657 32997 104 32778 46
1637046872037,43,3,28376 35443 27729 33652 33012 103 32779 46
1637046872036,44,0,28376 35443 27720 33646 33026 103 32781 46
1637046872036,45,0,28376 35443 27709 33639 33040 101 32784 46
1637046872037,46,0,28376 35443 27696 33630 33052 100 32786 45
1637046872036,47,0,28376 35443 27681 33620 33063 98 32790 45
1637046872036,48,0,28376 35443 27665 33609 33072 96 32793 44
1637046872037,49,0,28376 35443 27647 33596 33080 94 32797 44
1637046872078,50,0,28376 35443 27626 33583 33086 92 32801 43
1637046872078,51,0,28376 35443 27604 33568 33090 89 32805 42
1637046872078,52,0,28376 35443 27580 33553 33092 87 32808 41
1637046872078,53,0,28376 35443 27555 33538 33092 84 32811 40
1637046872081,54,17,28376 35443 27529 33522 33089 82 32814 39
1637046872082,55,1,28376 35443 27503 33506 33083 79 32816 38
1637046872081,56,10,28376 35443 27476 33491 33075 77 32817 37
1637046872082,57,79,28376 35443 27449 33475 33065 75 32818 36
1637046872081,58,0,28376 35443 27424 33459 33053 73 32818 35
1637046872082,59,4,28376 35443 27399 33443 33038 71 32817 34
1637046872153,60,0,28376 35443 27374 33427 33021 70 32816 33
1637046872153,61,0,28376 35443 27350 33412 33003 69 32815 31
1637046872153,62,0,28376 35443 27326 33398 32983 68 32813 30
1637046872154,63,0,28376 35443 27303 33384 32962 67 32810 29
1637046872155,0,111,28376 35443 27281 33371 32939 67 32808 28
1637046872154,1,65,28376 35443 27260 33360 32916 68 32805 27
1637046872155,2,177,28376 35443 27241 33349 32891 69 32802 26
1637046872154,3,24,28376 35443 27222 33339 32865 71 32799 25
1637046872155,4,112,28376 35443 27205 33330 32839 73 32795 24
1637046872154,5,139,28376 35443 27189 33322 32813 76 32792 23
1637046872156,6,85,28376 35443 27175 33314 32787 79 32789 22
1637046872157,7,1,28376 35443 27161 33308 32763 83 32786 21
1637046872156,8,30,28376 35443 27150 33302 32739 87 32783 20
1637046872157,9,77,28376 35443 27139 33297 32715 92 32780 20
1637046872156,10,0,28376 35443 27131 33293 32694 98 32778 19
1637046872157,11,1,28376 35443 27123 33290 32673 104 32775 19
1637046872158,12,0,28376 35443 27117 33287 32655 110 32772 18
1637046872158,13,0,28376 35443 27112 33285 32638 117 32770 18
1637046872158,14,0,28376 35443 27108 33283 32623 124 32768 18
1637046872159,15,2,28376 35443 27105 33282 32609 132 32768 18
1637046872159,16,89,28376 35443 27103 33281 32598 139 32767 18
1637046872159,17,97,28376 35443 27102 33281 32589 147 32766 18
1637046872199,18,50,28376 35443 27101 33281 32582 155 32766 18
1637046872199,19,24,28376 35443 27101 33282 32577 163 32766 19
1637046872199,20,4,28376 35443 27102 33283 32574 171 32766 19
1637046872199,21,173,28376 35443 27104 33285 32573 178 32767 20
1637046872201,22,85,28376 35443 27107 33287 32574 186 32768 20
1637046872202,23,1,28376 35443 27109 33289 32576 193 32768 21
1637046872201,24,30,28376 35443 27113 33291 32580 200 32769 21
1637046872202,25,77,28376 35443 27117 33294 32585 207 32771 22
1637046872201,26,0,28376 35443 27121 33297 32591 213 32773 23
1637046872202,27,2,28376 35443 27124 33301 32598 218 32774 24
1637046872257,28,0,28376 35443 27127 33305 32605 223 32776 24
1637046872257,29,0,28376 35443 27131 33308 32613 228 32778 25
1637046872257,30,0,28376 35443 27137 33313 32622 232 32780 26
1637046872259,31,0,28376 35443 27142 33317 32632 235 32781 26
1637046872259,32,0,28376 35443 27149 33321 32641 238 32783 27
1637046872259,33,0,28376 35443 27156 33326 32651 240 32785 27
1637046872259,34,0,28376 35443 27163 33330 32660 241 32786 28
1637046872259,35,0,28376 35443 27171 33335 32669 241 32788 28
1637046872259,36,0,28376 35443 27180 33339 32677 241 32790 29
1637046872259,37,0,28376 35443 27188 33343 32684 241 32791 29
1637046872261,38,17,28376 35443 27196 33347 32691 239 32793 29
1637046872262,39,1,28376 35443 27205 33351 32698 238 32794 29
1637046872261,40,30,28376 35443 27213 33355 32703 235 32795 29
1637046872262,41,79,28376 35443 27220 33359 32708 232 32796 29
1637046872261,42,0,28376 35443 27227 33362 32713 229 32797 29
1637046872262,43,3,28376 35443 27234 33366 32718 225 32798 29
1637046872302,44,0,28376 35443 27241 33369 32722 221 32798 28
1637046872302,45,0,28376 35443 27246 33371 32726 216 32798 28
1637046872302,46,0,28376 35443 27251 33373 32730 212 32797 27
1637046872304,47,0,28376 35443 27256 33375 32733 207 32796 27
1637046872304,48,0,28376 35443 27260 33377 32737 201 32795 26
1637046872304,49,0,28376 35443 27263 33379 32739 196 32793 25
1637046872305,50,0,28376 35443 27266 33380 32742 190 32791 24
1637046872305,51,0,28376 35443 27268 33381 32744 185 32789 24
1637046872305,52,0,28376 35443 27269 33382 32746 179 32787 23
1637046872305,53,0,28376 35443 27270 33382 32748 173 32785 22
1637046872348,54,17,28376 35443 27271 33382 32749 168 32783 21
1637046872348,55,1,28376 35443 27271 33383 32751 162 32780 20
1637046872348,56,10,28376 35443 27270 33382 32753 156 32779 19
1637046872350,57,79,28376 35443 27270 33382 32754 151 32777 18
1637046872350,58,0,28376 35443 27269 33381 32757 146 32775 17
1637046872350,59,4,28376 35443 27268 33380 32760 140 32774 16
1637046872350,60,0,28376 35443 27267 33379 32763 135 32774 15
1637046872350,61,0,28376 35443 27266 33379 32767 130 32774 14
1637046872350,62,0,28376 35443 27264 33378 32772 126 32774 13
1637046872352,63,0,28376 35443 27263 33378 32778 121 32775 12
1637046872352,0,111,28376 35443 27262 33377 32785 117 32776 12
1637046872352,1,65,28376 35443 27261 33377 32793 113 32778 11
1637046872393,2,177,28376 35443 27260 33377 32802 109 32781 10
1637046872393,3,24,28376 35443 27260 33377 32811 105 32783 10
1637046872393,4,112,28376 35443 27260 33378 32820 101 32786 10
1637046872393,5,139,28376 35443 27261 33378 32831 98 32789 9
1637046872394,6,85,28376 35443 27262 33379 32841 94 32792 9
1637046872395,7,1,28376 35443 27263 33380 32851 91 32795 9
1637046872394,8,30,28376 35443 27265 33381 32862 88 32798 9
1637046872395,9,77,28376 35443 27267 33383 32873 85 32801 9
1637046872394,10,0,28376 35443 27269 33384 32883 82 32803 9
1637046872395,11,1,28376 35443 27272 33386 32893 79 32805 9
1637046872438,12,0,28376 35443 27275 33388 32903 76 32806 9
1637046872438,13,0,28376 35443 27279 33391 32913 74 32807 10
1637046872438,14,0,28376 35443 27283 33393 32922 71 32807 10
1637046872440,15,2,28376 35443 27288 33395 32930 69 32807 10
1637046872441,16,86,28376 35443 27292 33398 32938 66 32806 11
1637046872440,17,97,28376 35443 27297 33400 32945 64 32805 11
1637046872441,18,50,28376 35443 27302 33403 32950 62 32804 12
1637046872440,19,24,28376 35443 27308 33406 32953 59 32802 12
1637046872441,20,4,28376 35443 27314 33409 32954 57 32800 13
1637046872440,21,179,28376 35443 27320 33413 32953 55 32798 13
1637046872443,22,85,28376 35443 27326 33417 32948 53 32796 14
1637046872443,23,1,28376 35443 27333 33422 32941 51 32793 14
1637046872443,24,30,28376 35443 27341 33426 32929 50 32790 15
1637046872484,25,77,28376 35443 27348 33431 32915 48 32787 15
1637046872484,26,0,28376 35443 27355 33435 32897 47 32783 16
1637046872484,27,2,28376 35443 27362 33439 32876 45 32780 16
1637046872485,28,0,28376 35443 27368 33443 32852 44 32776 17
1637046872486,29,0,28376 35443 27374 33448 32826 43 32772 17
1637046872485,30,0,28376 35443 27381 33452 32799 42 32768 18
1637046872486,31,0,28376 35443 27387 33457 32772 42 32764 19
1637046872485,32,0,28376 35443 27392 33461 32745 41 32759 19
1637046872486,33,0,28376 35443 27399 33466 32717 41 32754 20
1637046872487,34,0,28376 35443 27406 33470 32691 42 32748 20
1637046872487,35,0,28376 35443 27413 33475 32666 42 32743 21
1637046872487,36,0,28376 35443 27421 33480 32643 43 32738 21
1637046872487,37,0,28376 35443 27429 33486 32621 44 32732 21
1637046872528,38,17,28376 35443 27437 33491 32602 45 32727 22
1637046872528,39,1,28376 35443 27446 33497 32586 47 32721 22
1637046872528,40,30,28376 35443 27455 33503 32572 48 32716 23
1637046872530,41,79,28376 35443 27464 33508 32560 50 32710 23
1637046872530,42,0,28376 35443 27472 33513 32552 53 32706 23
1637046872530,43,3,28376 35443 27481 33519 32546 55 32701 24
1637046872530,44,0,28376 35443 27490 33524 32544 58 32697 24
1637046872530,45,0,28376 35443 27499 33529 32543 61 32693 24
1637046872530,46,0,28376 35443 27507 33533 32545 64 32690 25
1637046872572,47,0,28376 35443 27515 33538 32549 68 32687 25
1637046872572,48,0,28376 35443 27523 33542 32555 71 32684 25
1637046872572,49,0,28376 35443 27531 33545 32562 75 32683 25
1637046872574,50,0,28376 35443 27539 33549 32570 78 32681 25
1637046872574,51,0,28376 35443 27546 33551 32579 82 32681 25
1637046872574,52,0,28376 35443 27552 33554 32588 86 32681 26
1637046872574,53,0,28376 35443 27558 33556 32598 90 32681 26
1637046872574,54,17,28376 35443 27563 33558 32607 94 32683 26
1637046872574,55,1,28376 35443 27568 33560 32617 97 32685 26
1637046872574,56,10,28376 35443 27572 33561 32628 101 32688 26
1637046872576,57,79,28376 35443 27575 33561 32640 105 32692 26
1637046872576,58,0,28376 35443 27578 33562 32653 109 32696 26
1637046872576,59,4,28376 35443 27581 33563 32666 112 32702 26
1637046872618,60,0,28376 35443 27584 33564 32682 116 32708 26
1637046872618,61,0,28376 35443 27586 33566 32697 120 32715 27
1637046872618,62,0,28376 35443 27588 33567 32714 123 32723 27
1637046872619,63,0,28376 35443 27589 33569 32730 127 32731 27
1637046872620,0,111,28376 35443 27591 33570 32745 130 32741 28
1637046872619,1,65,28376 35443 27592 33571 32758 133 32750 28
1637046872620,2,177,28376 35443 27593 33572 32768 136 32760 28
1637046872619,3,24,28376 35443 27594 33573 32775 139 32769 29
1637046872620,4,112,28376 35443 27594 33575 32781 142 32778 30
1637046872619,5,139,28376 35443 27595 33576 32783 145 32787 30
1637046872648,6,85,28376 35443 27596 33577 32783 147 32796 31
1637046872648,7,1,28376 35443 27598 33579 32780 150 32803 32
1637046872648,8,30,28376 35443 27599 33581 32777 152 32809 33
1637046872650,9,77,28376 35443 27601 33582 32774 154 32814 34
1637046872651,10,0,28376 35443 27602 33584 32771 156 32818 35
1637046872650,11,1,28376 35443 27604 33586 32770 158 32820 37
1637046872651,12,0,28376 35443 27606 33587 32772 160 32821 38
1637046872650,13,0,28376 35443 27609 33589 32776 161 32820 39
1637046872651,14,0,28376 35443 27611 33590 32783 162 32819 41
1637046872693,15,2,28376 35443 27614 33592 32793 163 32817 42
1637046872693,16,86,28376 35443 27616 33594 32807 164 32814 44
1637046872693,17,97,28376 35443 27619 33595 32824 164 32811 45
1637046872695,18,50,28376 35443 27623 33597 32844 164 32807 46
1637046872696,19,24,28376 35443 27626 33599 32866 164 32804 48
1637046872695,20,4,28376 35443 27629 33601 32891 163 32800 49
1637046872696,21,179,28376 35443 27632 33604 32917 162 32798 51
1637046872695,22,85,28376 35443 27635 33605 32945 161 32795 52
1637046872696,23,1,28376 35443 27638 33607 32973 159 32793 53
1637046872695,24,30,28376 35443 27640 33609 33003 158 32792 54
1637046872783,25,77,28376 35443 27641 33610 33032 155 32791 55
1637046872783,26,0,28376 35443 27642 33610 33061 153 32791 56
1637046872783,27,2,28376 35443 27642 33610 33090 150 32791 57
1637046872785,28,0,28376 35443 27641 33609 33118 146 32791 58
1637046872785,29,0,28376 35443 27638 33606 33145 143 32791 59
1637046872785,30,0,28376 35443 27635 33603 33170 139 32792 59
1637046872785,31,0,28376 35443 27629 33599 33193 135 32792 60
1637046872785,32,0,28376 35443 27622 33594 33214 131 32793 60
1637046872785,33,0,28376 35443 27613 33587 33232 126 32793 60
1637046872786,34,0,28376 35443 27604 33579 33249 122 32794 60
1637046872787,35,0,28376 35443 27592 33569 33263 117 32794 60
1637046872786,36,0,28376 35443 27578 33559 33276 112 32794 60
1637046872787,37,0,28376 35443 27562 33547 33286 108 32795 60
1637046872786,38,17,28376 35443 27543 33535 33294 103 32795 60
1637046872787,39,1,28376 35443 27523 33522 33301 98 32795 59
1637046872786,40,30,28376 35443 27501 33508 33307 94 32795 58
1637046872788,41,79,28376 35443 27477 33494 33311 90 32794 58
1637046872788,42,0,28376 35443 27454 33480 33312 86 32794 57
1637046872788,43,3,28376 35443 27431 33465 33311 83 32793 56
1637046872789,44,0,28376 35443 27407 33450 33306 80 32793 55
1637046872789,45,0,28376 35443 27383 33435 33296 78 32792 54
1637046872789,46,0,28376 35443 27359 33420 33281 76 32791 52
1637046872790,47,0,28376 35443 27334 33406 33260 75 32790 51
1637046872790,48,0,28376 35443 27310 33392 33233 74 32790 50
1637046872790,49,0,28376 35443 27286 33379 33199 74 32790 48
1637046872828,50,0,28376 35443 27263 33367 33159 76 32791 47
1637046872828,51,0,28376 35443 27240 33355 33114 78 32792 45
1637046872828,52,0,28376 35443 27219 33344 33066 81 32794 44
1637046872828,53,0,28376 35443 27199 33333 33014 84 32798 43
1637046872948,54,17,28376 35443 27180 33323 32960 89 32802 41
1637046872948,55,1,28376 35443 27162 33313 32905 95 32807 40
1637046872948,56,10,28376 35443 27146 33304 32849 102 32813 38
1637046872949,57,79,28376 35443 27131 33296 32793 109 32820 37
1637046872950,58,0,28376 35443 27118 33288 32738 118 32827 35
1637046872949,59,4,28376 35443 27106 33280 32683 128 32834 34
1637046872950,60,0,28376 35443 27095 33274 32628 138 32842 32
1637046872949,61,0,28376 35443 27085 33268 32573 150 32849 31
1637046872950,62,0,28376 35443 27078 33263 32519 162 32856 30
1637046872993,63,0,28376 35443 27071 33259 32464 175 32863 29
1637046872993,0,111,28376 35443 27065 33256 32410 188 32869 28
1637046872993,1,65,28376 35443 27061 33254 32355 202 32875 27
1637046872996,2,177,28376 35443 27058 33252 32302 217 32880 26
1637046872996,3,24,28376 35443 27056 33252 32249 232 32883 25
1637046872997,4,112,28376 35443 27055 33252 32198 247 32886 24
1637046872996,5,139,28376 35443 27055 33252 32149 262 32887 23
1637046872996,6,85,28376 35443 27056 33253 32102 277 32887 23
1637046872997,7,1,28376 35443 27057 33255 32058 292 32885 22
1637046872996,8,30,28376 35443 27059 33257 32018 307 32881 22
1637046872996,9,77,28376 35443 27062 33259 31981 322 32875 21
1637046872997,10,0,28376 35443 27066 33262 31948 336 32867 21
1637046872996,11,1,28376 35443 27070 33265 31921 349 32858 21
1637046872999,12,0,28376 35443 27075 33269 31901 362 32847 21
1637046872999,13,0,28376 35443 27081 33273 31887 374 32834 21
1637046873000,14,0,28376 35443 27087 33278 31881 385 32821 22
1637046872999,15,2,28376 35443 27093 33283 31883 396 32807 22
1637046872999,16,86,28376 35443 27100 33288 31893 405 32792 23
1637046873000,17,97,28376 35443 27107 33293 31912 414 32777 23
1637046872999,18,50,28376 35443 27114 33299 31938 422 32763 24
1637046872999,19,24,28376 35443 27122 33304 31972 428 32748 25
1637046873000,20,4,28376 35443 27131 33309 32012 434 32734 26
1637046872999,21,179,28376 35443 27140 33315 32058 440 32720 28
1637046873001,22,85,28376 35443 27150 33320 32108 444 32708 29
1637046873002,23,1,28376 35443 27160 33326 32161 448 32696 31
1637046873001,24,30,28376 35443 27170 33332 32216 451 32686 33
1637046873002,25,77,28376 35443 27180 33337 32272 453 32678 35
1637046873001,26,0,28376 35443 27191 33343 32329 455 32672 37
1637046873002,27,2,28376 35443 27201 33349 32385 457 32668 39
1637046873003,28,0,28376 35443 27212 33355 32440 458 32666 41
1637046873003,29,0,28376 35443 27222 33361 32494 459 32667 43
1637046873003,30,0,28376 35443 27232 33367 32546 460 32670 45
1637046873003,31,0,28376 35443 27241 33372 32594 461 32675 48
1637046873003,32,0,28376 35443 27250 33378 32639 463 32682 50
1637046873003,33,0,28376 35443 27258 33383 32681 464 32692 53
1637046873004,34,0,28376 35443 27267 33388 32718 466 32703 55
1637046873004,35,0,28376 35443 27274 33392 32751 468 32715 57
1637046873004,36,0,28376 35443 27281 33396 32778 470 32728 60
1637046873004,37,0,28376 35443 27287 33399 32803 473 32742 62
1637046873038,38,17,28376 35443 27293 33402 32824 476 32756 64
1637046873038,39,1,28376 35443 27298 33405 32842 480 32770 67
1637046873038,40,30,28376 35443 27302 33407 32858 484 32785 69
1637046873040,41,79,28376 35443 43650 32896 26625 59520 7936 18192
1637046873040,44,0,28376 35443 27314 33412 32907 504 32838 76
1637046873040,45,0,28376 35443 27315 33413 32917 509 32848 77
1637046873040,46,0,28376 35443 27317 33413 32928 515 32857 79
1637046873042,47,0,28376 35443 27317 33414 32939 520 32865 80
1637046873042,48,0,28376 35443 27318 33414 32950 526 32870 81
1637046873042,49,0,28376 35443 27318 33414 32961 531 32874 82
1637046873084,50,0,28376 35443 27318 33414 32972 536 32876 83
1637046873084,51,0,28376 35443 27317 33414 32984 540 32876 83
1637046873084,52,0,28376 35443 27316 33413 32995 544 32874 84
1637046873084,53,0,28376 35443 27316 33412 33006 547 32871 84
1637046873085,54,17,28376 35443 27315 33412 33017 549 32865 84
1637046873086,55,1,28376 35443 27314 33412 33027 551 32859 84
1637046873085,56,10,28376 35443 27314 33411 33035 551 32851 84
1637046873086,57,79,28376 35443 27314 33411 33042 551 32842 83
1637046873085,58,0,28376 35443 27314 33411 33048 549 32832 83
1637046873086,59,4,28376 35443 27314 33411 33051 547 32821 82
1637046873087,60,0,28376 35443 27314 33411 33052 543 32810 82
1637046873087,61,0,28376 35443 27315 33411 33051 538 32798 81
1637046873087,62,0,28376 35443 27316 33412 33048 532 32786 80
1637046873188,63,0,28376 35443 27317 33412 33043 524 32774 79
1637046873188,0,111,28376 35443 27319 33413 33036 516 32764 78
1637046873188,1,65,28376 35443 27321 33413 33026 506 32752 77
1637046873191,2,177,28376 35443 27323 33414 33016 495 32741 76
1637046873191,3,24,28376 35443 27326 33416 33003 483 32730 75
1637046873193,4,112,28376 35443 27329 33417 32989 471 32720 74
1637046873191,5,139,28376 35443 27332 33419 32974 457 32710 73
1637046873191,6,85,28376 35443 27335 33420 32958 442 32702 71
1637046873193,7,1,28376 35443 27339 33423 32941 427 32694 70
1637046873191,8,30,28376 35443 27343 33425 32923 412 32687 69
1637046873191,9,77,28376 35443 27347 33428 32905 395 32682 68
1637046873193,10,0,28376 35443 27352 33431 32886 379 32677 67
1637046873191,11,1,28376 35443 27357 33434 32868 362 32674 67
1637046873195,12,0,28376 35443 27362 33438 32849 345 32671 66
1637046873195,13,0,28376 35443 27368 33442 32832 328 32669 65
1637046873196,14,0,28376 35443 27374 33445 32815 311 32669 64
1637046873195,15,2,28376 35443 27380 33449 32799 295 32669 64
1637046873195,16,86,28376 35443 27385 33453 32785 279 32670 63
1637046873196,17,97,28376 35443 27389 33458 32772 263 32672 62
1637046873195,18,50,28376 35443 27393 33462 32762 248 32675 62
1637046873195,19,24,28376 35443 27398 33467 32754 233 32678 61
1637046873196,20,4,28376 35443 27403 33471 32747 219 32682 61
1637046873195,21,179,28376 35443 27409 33475 32743 206 32686 61
1637046873197,22,85,28376 35443 27414 33479 32741 193 32691 60
1637046873197,23,1,28376 35443 27420 33483 32742 182 32696 60
1637046873197,24,30,28376 35443 27426 33486 32745 171 32701 60
1637046873233,25,77,28376 35443 27432 33490 32751 162 32706 60
1637046873233,26,0,28376 35443 27439 33493 32759 153 32711 60
1637046873233,27,2,28376 35443 27445 33496 32768 145 32716 60
1637046873235,28,0,28376 35443 27452 33500 32779 138 32721 60
1637046873236,29,0,28376 35443 27459 33503 32791 132 32725 60
1637046873235,30,0,28376 35443 27466 33507 32803 127 32730 60
1637046873236,31,0,28376 35443 27473 33511 32816 123 32734 60
1637046873235,32,0,28376 35443 27480 33514 32828 119 32737 61
1637046873236,33,0,28376 35443 27487 33518 32840 116 32741 61
1637046873267,34,0,28376 35443 27493 33523 32852 114 32743 61
1637046873267,35,0,28376 35443 27500 33527 32863 113 32745 61
1637046873267,36,0,28376 35443 27506 33531 32872 112 32747 62
1637046873267,37,0,28376 35443 27512 33535 32880 111 32748 62
1637046873267,38,17,28376 35443 27518 33539 32886 111 32749 63
1637046873267,39,1,28376 35443 27525 33543 32891 112 32748 63
1637046873282,40,30,28376 35443 27531 33547 32894 112 32747 64
1637046873267,41,79,28376 35443 27537 33550 32895 113 32746 64
1637046873267,42,0,28376 35443 27542 33553 32895 114 32744 65
1637046873282,43,3,28376 35443 27548 33556 32893 115 32741 66
1637046873267,44,0,28376 35443 27553 33559 32891 116 32738 66
1637046873267,45,0,28376 35443 27558 33562 32888 117 32735 67
1637046873282,46,0,28376 35443 27562 33565 32886 118 32731 67
1637046873323,47,0,28376 35443 27567 33567 32884 119 32728 68
1637046873323,48,0,28376 35443 27571 33570 32884 120 32724 68
1637046873323,49,0,28376 35443 27576 33573 32886 120 32722 68
1637046873325,50,0,28376 35443 27580 33576 32890 121 32719 69
1637046873326,51,0,28376 35443 27584 33578 32895 121 32718 69
1637046873325,52,0,28376 35443 27588 33580 32901 121 32717 69
1637046873326,53,0,28376 35443 27592 33582 32908 120 32717 69
1637046873325,54,17,28376 35443 27596 33584 32914 119 32717 69
1637046873326,55,1,28376 35443 27599 33586 32918 118 32718 69
1637046873325,56,10,28376 35443 27603 33588 32921 117 32720 69
1637046873327,57,79,28376 35443 27607 33590 32920 116 32723 69
1637046873327,58,0,28376 35443 27610 33592 32915 114 32726 68
1637046873327,59,4,28376 35443 27614 33594 32907 112 32729 68
1637046873398,60,0,28376 35443 27617 33596 32895 110 32733 67
1637046873398,61,0,28376 35443 27621 33599 32879 108 32737 67
1637046873398,62,0,28376 35443 27625 33601 32860 106 32740 66
1637046873400,63,0,28376 35443 27629 33603 32839 103 32744 65
1637046873400,0,111,28376 35443 27633 33605 32817 101 32747 64
1637046873400,1,65,28376 35443 27636 33608 32795 99 32750 63
1637046873400,2,177,28376 35443 27640 33610 32773 96 32752 62
1637046873400,3,24,28376 35443 27644 33613 32755 94 32753 60
1637046873400,4,112,28376 35443 27648 33616 32739 91 32755 59
1637046873400,5,139,28376 35443 27651 33619 32728 89 32756 58
1637046873402,6,85,28376 35443 27655 33622 32721 87 32757 56
1637046873403,7,1,28376 35443 27659 33625 32719 85 32759 55
1637046873402,8,30,28376 35443 27663 33628 32722 83 32760 53
1637046873403,9,77,28376 35443 27667 33631 32729 81 32762 52
1637046873402,10,0,28376 35443 27671 33634 32742 80 32764 50
1637046873403,11,1,28376 35443 27676 33637 32758 79 32767 49
1637046873404,12,0,28376 35443 27680 33640 32778 78 32770 47
1637046873404,13,0,28376 35443 27686 33644 32802 77 32774 46
1637046873404,14,0,28376 35443 27691 33647 32828 77 32778 44
1637046873443,15,2,28376 35443 27696 33650 32856 76 32782 43
1637046873443,16,86,28376 35443 27700 33652 32886 76 32787 41
1637046873443,17,97,28376 35443 27705 33654 32916 76 32792 40
1637046873444,18,50,28376 35443 27710 33655 32946 76 32796 39
1637046873445,19,24,28376 35443 27714 33655 32976 77 32800 37
1637046873444,20,4,28376 35443 27716 33655 33005 78 32803 36
1637046873445,21,179,28376 35443 27716 33653 33032 78 32806 35
1637046873444,22,85,28376 35443 27714 33650 33058 79 32808 34
1637046873445,23,1,28376 35443 27709 33647 33082 80 32810 33
1637046873444,24,30,28376 35443 27703 33642 33104 81 32810 32
1637046873534,25,77,28376 35443 27694 33636 33123 82 32811 31
1637046873534,26,0,28376 35443 27682 33629 33139 83 32810 30
1637046873534,27,2,28376 35443 27670 33621 33152 84 32809 29
1637046873536,28,0,28376 35443 27656 33611 33162 85 32808 28
1637046873537,29,0,28376 35443 27640 33600 33167 87 32806 27
1637046873537,30,0,28376 35443 27622 33587 33169 88 32804 26
1637046873536,31,0,28376 35443 27601 33573 33166 89 32802 26
1637046873537,32,0,28376 35443 27579 33559 33159 90 32801 25
1637046873537,33,0,28376 35443 27555 33544 33146 91 32799 24
1637046873536,34,0,28376 35443 27531 33529 33129 92 32798 24
1637046873537,35,0,28376 35443 27505 33514 33107 93 32796 23
1637046873537,36,0,28376 35443 27479 33499 33080 94 32796 23
1637046873536,37,0,28376 35443 27453 33484 33048 95 32795 22
1637046873539,38,17,28376 35443 27427 33469 33013 96 32795 22
1637046873539,39,1,28376 35443 27402 33455 32975 98 32795 22
1637046873540,40,30,28376 35443 27377 33441 32934 99 32795 21
1637046873539,41,79,28376 35443 27355 33428 32891 101 32795 21
1637046873539,42,0,28376 35443 27334 33416 32848 103 32795 21
1637046873540,43,3,28376 35443 27314 33404 32806 105 32796 21
1637046873539,44,0,28376 35443 27295 33393 32766 107 32796 21
1637046873539,45,0,28376 35443 27277 33383 32728 110 32796 21
1637046873540,46,0,28376 35443 27260 33374 32692 113 32795 21
1637046873541,47,0,28376 35443 27245 33366 32660 116 32795 21
1637046873541,48,0,28376 35443 27230 33358 32631 120 32794 21
1637046873541,49,0,28376 35443 27216 33352 32607 123 32793 21
1637046873608,50,0,28376 35443 27205 33346 32586 128 32791 21
1637046873608,51,0,28376 35443 27194 33341 32568 132 32789 21
1637046873608,52,0,28376 35443 27185 33337 32554 137 32786 21
1637046873608,53,0,28376 35443 27178 33333 32542 143 32783 22
1637046873610,54,17,28376 35443 27172 33330 32533 148 32780 22
1637046873611,55,1,28376 35443 27169 33328 32526 154 32776 22
1637046873610,56,10,28376 35443 27167 33327 32521 160 32771 23
1637046873611,57,79,28376 35443 27166 33327 32519 166 32768 23
1637046873610,58,0,28376 35443 27166 33328 32519 172 32763 23
1637046873611,59,4,28376 35443 27168 33330 32521 179 32758 24
1637046873612,60,0,28376 35443 27171 33333 32526 185 32754 24
1637046873613,61,0,28376 35443 27175 33336 32533 191 32749 25
1637046873612,62,0,28376 35443 27179 33340 32542 198 32745 25
1637046873613,63,0,28376 35443 27185 33344 32554 204 32741 26
1637046873612,0,111,28376 35443 27191 33349 32568 210 32738 26
1637046873613,1,65,28376 35443 27198 33353 32582 216 32736 26
1637046873614,2,177,28376 35443 27206 33358 32598 221 32734 27
1637046873614,3,24,28376 35443 27214 33363 32614 226 32733 27
1637046873614,4,112,28376 35443 27223 33369 32631 231 32733 28
1637046873614,5,139,28376 35443 27233 33374 32647 236 32733 28
1637046873653,6,85,28376 35443 27243 33380 32663 240 32734 28
1637046873653,7,1,28376 35443 27254 33385 32678 244 32736 28
1637046873653,8,30,28376 35443 27265 33391 32692 247 32738 29
1637046873654,9,77,28376 35443 27277 33397 32704 250 32741 29
1637046873654,10,0,28376 35443 27289 33403 32715 252 32744 29
1637046873654,11,1,28376 35443 27300 33410 32725 254 32747 29
1637046873655,12,0,28376 35443 27312 33416 32734 256 32749 29
1637046873655,13,0,28376 35443 27324 33423 32741 257 32752 29
1637046873655,14,0,28376 35443 27335 33430 32747 257 32754 29
1637046873700,15,2,28376 35443 27346 33437 32753 257 32757 29
1637046873700,16,84,28376 35443 27355 33444 32758 257 32758 29
1637046873700,17,97,28376 35443 27365 33450 32762 256 32760 29
1637046873716,18,50,28376 35443 27375 33457 32766 255 32761 28
1637046873717,19,24,28376 35443 27385 33464 32768 253 32762 28
1637046873718,20,4,28376 35443 27395 33470 32769 251 32763 28
1637046873716,21,182,28376 35443 27404 33476 32769 249 32763 28
1637046873717,22,85,28376 35443 27414 33481 32769 246 32764 27
1637046873718,23,1,28376 35443 27423 33486 32768 243 32764 27
1637046873716,24,30,28376 35443 27431 33491 32766 239 32764 26
1637046873717,25,77,28376 35443 27439 33496 32762 235 32763 26
1637046873718,26,0,28376 35443 27446 33500 32756 231 32763 26
1637046873716,27,2,28376 35443 27453 33504 32750 227 32763 25
1637046873720,28,0,28376 35443 27460 33508 32742 222 32763 25
1637046873720,29,0,28376 35443 27466 33512 32734 217 32763 24
1637046873720,30,0,28376 35443 27471 33515 32725 212 32763 24
1637046873758,31,0,28376 35443 27476 33518 32716 206 32763 24
1637046873758,32,0,28376 35443 27481 33520 32706 200 32763 23
1637046873758,33,0,28376 35443 27485 33522 32697 194 32764 23
1637046873759,34,0,28376 35443 27488 33524 32689 188 32765 22
1637046873760,35,0,28376 35443 27491 33525 32682 182 32767 22
1637046873759,36,0,28376 35443 27493 33526 32677 175 32768 21
1637046873760,37,0,28376 35443 27494 33527 32674 169 32770 21
1637046873759,38,17,28376 35443 27495 33527 32673 162 32772 21
1637046873760,39,1,28376 35443 27496 33528 32674 155 32774 20
1637046873759,40,30,28376 35443 27497 33528 32679 148 32776 20
1637046873761,41,79,28376 35443 27497 33528 32686 142 32778 19
1637046873761,42,0,28376 35443 27497 33529 32697 135 32780 19
1637046873761,43,3,28376 35443 27497 33529 32710 128 32781 19
1637046873804,44,0,28376 35443 27496 33530 32726 121 32782 18
1637046873804,45,0,28376 35443 27496 33530 32745 114 32782 18
1637046873804,46,0,28376 35443 27496 33531 32765 107 32782 17
1637046873805,47,0,28376 35443 27496 33532 32786 100 32782 17
1637046873806,48,0,28376 35443 27496 33533 32809 94 32781 17
1637046873805,49,0,28376 35443 27496 33533 32832 87 32780 16
1637046873806,50,0,28376 35443 27497 33534 32856 81 32779 16
1637046873805,51,0,28376 35443 27498 33535 32879 75 32777 15
1637046873806,52,0,28376 35443 27499 33536 32901 69 32775 15
1637046873805,53,0,28376 35443 27500 33537 32922 64 32774 14
1637046873848,54,17,28376 35443 27502 33538 32940 58 32772 14
1637046873848,55,1,28376 35443 27504 33539 32956 54 32770 14
1637046873848,56,10,28376 35443 27507 33541 32969 49 32768 13
1637046873850,57,79,28376 35443 27510 33543 32980 45 32767 13
1637046873850,58,0,28376 35443 27514 33544 32986 41 32766 12
1637046873850,59,4,28376 35443 27517 33546 32990 37 32764 12
1637046873850,60,0,28376 35443 27521 33547 32989 34 32763 11
1637046873850,61,0,28376 35443 27525 33549 32986 31 32761 11
1637046873850,62,0,28376 35443 27529 33551 32979 28 32760 10
1637046873852,63,0,28376 35443 27534 33554 32969 26 32758 10
1637046873852,0,111,28376 35443 27539 33556 32956 25 32756 10
1637046873852,1,65,28376 35443 27544 33559 32941 23 32754 9
1637046873923,2,177,28376 35443 27549 33562 32923 22 32752 9
1637046873923,3,24,28376 35443 27555 33565 32904 22 32749 8
1637046873923,4,112,28376 35443 27560 33568 32883 22 32746 8
1637046873923,5,139,28376 35443 27566 33571 32862 22 32743 8
1637046873925,6,85,28376 35443 27571 33574 32840 23 32740 7
1637046873926,7,1,28376 35443 27577 33578 32817 24 32736 7
1637046873925,8,30,28376 35443 27583 33582 32795 25 32733 7
1637046873926,9,77,28376 35443 27589 33585 32773 27 32729 7
1637046873925,10,0,28376 35443 27595 33589 32753 30 32725 6
1637046873926,11,1,28376 35443 27602 33592 32734 32 32720 6
1637046873927,12,0,28376 35443 27608 33595 32715 35 32716 6
1637046873928,13,0,28376 35443 27614 33599 32698 39 32711 6
1637046873927,14,0,28376 35443 27620 33602 32683 42 32707 6
1637046873928,15,2,28376 35443 27626 33606 32670 46 32702 5
1637046873927,16,84,28376 35443 27632 33610 32658 51 32698 5
1637046873928,17,97,28376 35443 27637 33614 32648 55 32693 5
1637046873929,18,50,28376 35443 27641 33618 32639 60 32689 5
1637046873929,19,24,28376 35443 27645 33622 32632 65 32685 5
1637046873929,20,12,28376 35443 27651 33626 32626 70 32681 5
1637046873929,21,182,28376 35443 27657 33630 32622 75 32677 5
1637046873968,22,85,28376 35443 27663 33634 32619 80 32674 6
1637046873968,23,1,28376 35443 27669 33638 32618 85 32672 6
1637046873968,24,30,28376 35443 27675 33642 32618 90 32670 6
1637046873970,25,77,28376 35443 27680 33645 32621 96 32669 6
1637046873970,26,0,28376 35443 27685 33648 32626 101 32668 7
1637046873970,27,2,28376 35443 27690 33652 32634 106 32668 7
1637046873970,28,0,28376 35443 27695 33655 32644 110 32669 8
1637046873970,29,0,28376 35443 27700 33658 32656 115 32670 8
1637046873970,30,0,28376 35443 27705 33661 32669 119 32672 9
1637046873972,31,0,28376 35443 27710 33664 32683 123 32675 9
1637046873972,32,0,28376 35443 27715 33667 32697 127 32678 10
1637046873972,33,0,28376 35443 27720 33670 32708 131 32682 11
1637046874013,34,0,28376 35443 27724 33673 32715 134 32686 12
1637046874013,35,0,28376 35443 27729 33676 32719 137 32690 13
1637046874013,36,0,28376 35443 27734 33679 32716 139 32694 14
1637046874013,37,0,28376 35443 27739 33682 32708 141 32698 16
1637046874015,38,17,28376 35443 27744 33685 32693 143 32702 17
1637046874016,39,1,28376 35443 27749 33688 32673 145 32706 18
1637046874015,40,30,28376 35443 27753 33691 32648 146 32709 20
1637046874016,41,79,28376 35443 27758 33693 32620 147 32711 22
1637046874015,42,0,28376 35443 27762 33695 32592 147 32713 24
1637046874016,43,3,28376 35443 27766 33698 32564 148 32714 26
1637046874058,44,0,28376 35443 27771 33700 32540 147 32714 28
1637046874058,45,0,28376 35443 27775 33703 32522 147 32714 30
1637046874058,46,0,28376 35443 27780 33706 32511 146 32713 32
1637046874060,47,0,28376 35443 27785 33709 32509 145 32711 34
1637046874061,48,0,28376 35443 27790 33712 32517 144 32709 37
1637046874060,49,0,28376 35443 27795 33716 32534 143 32707 39
1637046874061,50,0,28376 35443 27800 33719 32560 141 32705 42
1637046874060,51,0,28376 35443 27805 33722 32594 139 32704 44
1637046874061,52,0,28376 35443 27810 33725 32634 137 32704 47
1637046874060,53,0,28376 35443 27815 33729 32680 135 32704 49
1637046874063,54,17,28376 35443 27820 33732 32730 133 32705 52
1637046874063,55,1,28376 35443 27826 33735 32782 130 32707 55
1637046874063,56,10,28376 35443 27831 33739 32837 128 32710 57
1637046874101,57,79,28376 35443 27837 33743 32893 126 32715 60
1637046874101,58,0,28376 35443 27843 33746 32948 123 32719 62
1637046874101,59,4,28376 35443 27848 33750 33003 121 32725 65
1637046874101,60,0,28376 35443 27853 33753 33057 119 32731 67
1637046874101,61,0,28376 35443 27858 33756 33107 117 32738 69
1637046874101,62,0,28376 35443 27862 33758 33155 115 32745 71
1637046874101,63,0,28376 35443 27865 33760 33199 113 32752 73
1637046874101,0,111,28376 35443 27866 33761 33239 112 32758 75
1637046874101,1,65,28376 35443 27866 33761 33273 110 32765 77
1637046874178,2,177,28376 35443 27864 33759 33302 109 32770 79
1637046874178,3,24,28376 35443 27860 33756 33325 108 32776 80
1637046874178,4,122,28376 35443 27855 33752 33342 107 32782 81
1637046874178,5,139,28376 35443 27849 33746 33351 107 32788 82
1637046874181,6,85,28376 35443 27840 33739 33353 107 32793 83
1637046874182,7,1,28376 35443 27829 33731 33348 107 32797 84
1637046874182,8,30,28376 35443 27816 33721 33336 107 32802 84
1637046874181,9,77,28376 35443 27800 33711 33316 108 32806 85
1637046874182,10,0,28376 35443 27782 33699 33289 109 32810 85
1637046874182,11,1,28376 35443 27762 33687 33256 111 32813 85
1637046874181,12,0,28376 35443 27741 33674 33217 113 32817 85
1637046874182,13,0,28376 35443 27718 33660 33173 115 32820 84
1637046874182,14,0,28376 35443 27695 33646 33123 118 32823 84
1637046874184,15,2,28376 35443 27673 33632 33069 121 32825 83
1637046874184,16,84,28376 35443 27650 33618 33013 124 32828 82
1637046874184,17,97,28376 35443 27627 33603 32954 129 32829 81
1637046874184,18,50,28376 35443 27604 33589 32894 133 32831 79
1637046874184,19,24,28376 35443 27581 33575 32835 138 32832 78
1637046874184,20,12,28376 35443 27558 33561 32777 144 32833 76
1637046874184,21,182,28376 35443 27536 33548 32724 150 32833 74
1637046874223,22,85,28376 35443 27514 33536 32674 157 32834 73
1637046874223,23,1,28376 35443 27493 33524 32628 164 32834 71
1637046874223,24,30,28376 35443 27473 33512 32589 172 32834 69
1637046874224,25,77,28376 35443 27455 33502 32555 180 32834 66
1637046874225,26,0,28376 35443 27438 33493 32527 189 32833 64
1637046874224,27,2,28376 35443 27423 33484 32505 198 32832 62
1637046874225,28,0,28376 35443 27409 33476 32487 207 32830 60
1637046874224,29,0,28376 35443 27397 33469 32474 217 32828 57
1637046874225,30,0,28376 35443 27386 33462 32464 227 32825 55
1637046874227,31,0,28376 35443 27376 33456 32456 238 32821 53
1637046874227,32,0,28376 35443 27368 33452 32450 248 32817 51
1637046874227,33,0,28376 35443 27362 33448 32445 259 32812 48
1637046874268,34,0,28376 35443 27356 33445 32441 269 32806 46
1637046874268,35,0,28376 35443 27352 33444 32438 280 32800 44
1637046874268,36,0,28376 35443 27350 33443 32436 290 32793 42
1637046874268,37,0,28376 35443 27349 33443 32435 300 32785 41
1637046874270,38,17,28376 35443 27349 33444 32434 310 32777 39
1637046874271,39,1,28376 35443 27350 33445 32434 319 32769 37
1637046874270,40,30,28376 35443 27353 33447 32435 328 32762 36
1637046874271,41,79,28376 35443 27355 33450 32437 336 32753 35
1637046874270,42,0,28376 35443 27358 33454 32440 344 32744 34
1637046874271,43,3,28376 35443 27363 33458 32444 351 32736 33
1637046874358,44,0,28376 35443 27369 33462 32448 357 32728 32
1637046874358,45,0,28376 35443 27376 33468 32453 363 32721 32
1637046874358,46,0,28376 35443 27385 33473 32459 368 32715 31
1637046874359,47,0,28376 35443 27395 33479 32466 372 32710 31
1637046874359,48,0,28376 35443 27406 33486 32474 375 32706 31
1637046874359,49,0,28376 35443 27417 33492 32483 378 32703 31
1637046874360,50,0,28376 35443 27430 33500 32493 380 32700 31
1637046874360,51,0,28376 35443 27442 33507 32506 381 32699 31
1637046874360,52,0,28376 35443 27456 33514 32520 381 32698 32
1637046874360,53,0,28376 35443 27469 33522 32536 380 32698 32
1637046874362,54,17,28376 35443 27483 33529 32554 379 32699 33
1637046874362,55,1,28376 35443 27497 33537 32573 377 32701 34
1637046874362,56,10,28376 35443 27511 33544 32595 375 32703 35
1637046874362,57,79,28376 35443 27524 33552 32618 372 32707 36
1637046874362,58,0,28376 35443 27538 33560 32643 368 32710 36
1637046874362,59,4,28376 35443 27551 33568 32670 364 32715 37
1637046874363,60,0,28376 35443 27563 33575 32697 360 32720 38
1637046874363,61,0,28376 35443 27576 33582 32725 355 32726 39
1637046874363,62,0,28376 35443 27587 33589 32753 350 32732 40
1637046874364,63,0,28376 35443 27598 33596 32780 345 32738 41
1637046874364,0,111,28376 35443 27609 33603 32807 339 32744 42
1637046874364,1,65,28376 35443 27619 33609 32833 334 32751 43
1637046874365,2,177,28376 35443 27629 33615 32856 328 32757 44
1637046874365,3,24,28376 35443 27637 33621 32877 322 32763 45
1637046874365,4,122,28376 35443 27644 33626 32896 316 32768 46
1637046874365,5,139,28376 35443 27650 33631 32911 311 32774 47
1637046874403,6,85,28376 35443 27657 33635 32923 305 32779 47
1637046874403,7,1,28376 35443 27664 33638 32932 299 32784 48
1637046874403,8,30,28376 35443 27670 33641 32937 293 32789 49
1637046874404,9,77,28376 35443 27675 33643 32939 288 32793 49
1637046874404,10,0,28376 35443 27680 33644 32938 282 32797 50
1637046874404,11,1,28376 35443 27683 33646 32934 277 32800 50
1637046874405,12,0,28376 35443 27685 33647 32927 271 32803 51
1637046874405,13,0,28376 35443 27687 33647 32919 266 32805 51
1637046874405,14,0,28376 35443 27688 33647 32910 261 32807 51
1637046874448,15,2,28376 35443 27688 33647 32900 256 32808 52
1637046874448,16,89,28376 35443 27688 33647 32891 251 32808 52
1637046874448,17,97,28376 35443 27687 33646 32883 246 32808 52
1637046874450,18,50,28376 35443 27685 33645 32876 242 32807 52
1637046874450,19,24,28376 35443 27684 33644 32871 237 32805 52
1637046874450,20,12,28376 35443 27682 33642 32868 233 32802 51
1637046874450,21,173,28376 35443 27680 33641 32868 228 32799 51
1637046874450,22,85,28376 35443 27678 33639 32869 224 32795 51
1637046874450,23,1,28376 35443 27676 33638 32872 219 32790 51
1637046874450,24,30,28376 35443 27675 33637 32877 215 32784 50
1637046874452,25,77,28376 35443 27674 33636 32884 211 32778 50
1637046874452,26,0,28376 35443 27673 33636 32891 206 32771 49
1637046874452,27,2,28376 35443 27672 33636 32898 202 32766 48
1637046874493,28,0,28376 35443 27672 33636 32907 198 32759 48
1637046874493,29,0,28376 35443 27672 33637 32915 194 32752 47
1637046874493,30,0,28376 35443 27672 33637 32922 190 32745 46
1637046874494,31,0,28376 35443 27673 33637 32930 186 32739 45
1637046874495,32,0,28376 35443 27673 33638 32936 182 32734 44
1637046874494,33,0,28376 35443 27674 33638 32940 178 32729 44
1637046874495,34,0,28376 35443 27673 33639 32943 174 32724 43
1637046874494,35,0,28376 35443 27673 33640 32945 170 32720 42
1637046874495,36,0,28376 35443 27673 33642 32944 166 32717 41
1637046874494,37,0,28376 35443 27675 33643 32941 162 32715 40
1637046874568,38,17,28376 35443 27676 33645 32936 159 32713 39
1637046874568,39,1,28376 35443 27679 33647 32928 155 32712 38
1637046874568,40,30,28376 35443 27681 33650 32917 152 32711 37
1637046874570,41,79,28376 35443 27684 33652 32904 149 32710 36
1637046874570,42,0,28376 35443 27687 33654 32888 145 32710 35
1637046874570,43,3,28376 35443 27690 33656 32870 142 32710 34
1637046874613,44,0,28376 35443 27693 33658 32849 139 32711 33
1637046874613,45,0,28376 35443 27696 33660 32827 136 32711 32
